Wavelength (nm),ABS_mean,ABS_std,HDPE_mean,HDPE_std,LDPE_mean,LDPE_std,PA6_mean,PA6_std,PA66_mean,PA66_std,PC_mean,PC_std,PET_mean,PET_std,PETG_mean,PETG_std,PLA_mean,PLA_std,PMMA_mean,PMMA_std,POM_mean,POM_std,PP_mean,PP_std,PS_mean,PS_std,PVC_mean,PVC_std,TPU_mean,TPU_std
1550.0,48632.71428571428,7367.01938269705,37734.61224489796,19146.04088110841,51636.71428571428,5313.251566045187,47.77777777777778,109.6666103793619,239.41935483870967,377.38854575106,64205.53191489362,340.3293055490257,46742.0,21316.36685912323,54026.92307692308,8858.28501774589,34617.0,23147.508505236583,44850.51048951049,21683.723065243423,42271.8125,5027.686138010581,40196.666666666664,21613.73261892129,53156.416666666664,11976.35356389832,43701.22680412371,23580.98716903272,30662.266666666666,5563.622195017279
1553.1496062992126,49502.57142857143,7248.647601754535,37814.26530612245,19229.69123970821,51743.333333333336,5668.622612016107,573.6296296296297,442.4006185237914,411.741935483871,483.3493338818167,64261.59574468085,326.91619458167656,46681.763636363634,21380.05558285456,54380.88461538462,8681.698049641436,35383.318181818184,22921.096511900367,44928.36363636364,22051.518274971564,43148.25,4925.991289831926,40458.183333333334,21647.633578516667,53278.916666666664,11739.916662525997,43776.34020618557,23730.213081741986,31609.133333333335,5390.532921912473
1556.2992125984251,51071.04761904762,6803.601325601936,38575.63265306123,19012.60512772006,52062.47619047619,6039.261344135261,2259.4074074074074,1316.5673171873404,1860.032258064516,1465.5591795068653,64246.97872340425,299.9327931360129,47005.89090909091,20713.554263878632,54989.38461538462,8084.6709845852165,37316.13636363636,21852.784639066136,45331.82517482517,21959.57800469448,44510.4375,4729.869870947165,41412.38333333333,21105.75268506327,53866.694444444445,11115.71837739355,44403.49484536082,23333.57817559873,33379.6,5090.050226340274
1559.4488188976377,53155.19047619047,6096.3905372578,39903.32653061225,18667.4565644936,52565.80952380953,6438.21450861626,4924.925925925926,2460.111423642282,4427.806451612903,2640.143219714328,64204.8085106383,262.7427054920292,47716.38181818182,19498.177040655883,55843.807692307695,7153.491966107993,40166.22727272727,20100.39389015191,46052.51748251748,21456.7209728569,46263.375,4459.105794256849,42967.683333333334,20102.49771172036,54798.97222222222,10298.051758804,45506.26804123711,22482.58049838359,35830.46666666667,4692.4558867280675
1562.5984251968505,55519.09523809524,5212.810638497668,41646.22448979592,18348.329188534546,53215.47619047619,6823.4209379937965,8327.703703703704,3733.7096319762477,7899.129032258064,3859.3755448587667,64186.02127659575,220.04607731802707,48804.836363636365,17949.00472375065,56923.653846153844,6001.662897399659,43607.181818181816,17874.007345956466,47074.13986013986,20606.678472251675,48282.5,4139.5319179829985,44997.13333333333,18776.579377393413,55921.75,9513.094932118569,46981.257731958765,21285.26008902136,38768.933333333334,4240.929009335363
1565.748031496063,57911.57142857143,4247.786813898095,43634.02040816326,18121.093788776227,53969.666666666664,7106.035123372468,12192.407407407407,4988.031224910875,12019.322580645161,4968.414892206872,64235.27659574468,176.538309039777,50240.90909090909,16269.857849602773,58190.769230769234,4754.600123181859,47283.0,15407.057317405493,48368.52447552448,19478.93187391704,50432.1875,3797.8014235006744,47349.5,17266.318740542236,57074.166666666664,8949.653827880098,48709.092783505155,19845.756946642417,41975.86666666667,3781.4218642668734
1568.8976377952756,60105.28571428572,3293.333658321612,45708.77551020408,17947.621875625213,54788.19047619047,7185.899762193336,16241.962962962964,6087.584879514611,16518.225806451614,5828.298272691872,64379.234042553195,136.02506226614577,51964.0,14611.976167762961,59585.269230769234,3532.8270174475147,50857.954545454544,12925.573750153651,49892.77622377622,18141.45139389892,52584.0,3455.8147555967175,49862.88333333333,15687.826759509708,58116.13888888889,8677.714036390951,50567.113402061856,18249.40565046948,45232.46666666667,3354.037246198809
1572.0472440944882,61929.52380952381,2427.267238981548,47733.95918367347,17712.918714488842,55636.57142857143,6988.183656453694,20226.40740740741,6930.847563258791,21133.09677419355,6342.60510411643,64616.72340425532,101.05753619821536,53879.87272727273,13053.633593830626,61025.38461538462,2436.6876804529147,54058.72727272727,10619.90859908373,51587.0,16659.09720729901,54632.0625,3127.3032006177064,52378.11666666667,14123.079509667461,58949.22222222222,8625.60909962341,52440.83505154639,16558.025852671584,48343.666666666664,2983.4380093368045
1575.1968503937007,63290.95238095238,1705.1440234154911,49613.30612244898,17296.951018573825,56488.71428571428,6486.441089966474,23947.074074074073,7464.217355842055,25629.709677419356,6474.928980522455,64916.255319148935,71.84808680883322,55863.94545454546,11610.639478776167,62412.57692307692,1535.2200086150751,56704.90909090909,8626.122682711513,53374.82517482517,15094.757342705794,56503.25,2817.617311222374,54753.0,12620.749368929459,59529.63888888889,8648.717863079724,54233.072164948455,14817.671163382332,51159.6,2675.5826231558117
1578.3464566929133,64180.142857142855,1158.0170771713208,51294.663265306124,16629.92861587995,57328.04761904762,5711.057099014912,27269.40740740741,7686.917516670337,29817.58064516129,6256.945811548766,65219.8085106383,46.775442865125385,57772.05454545454,10271.224978582697,63642.03846153846,860.7339212184534,58720.954545454544,7015.9083677886365,55165.832167832166,13512.577792087523,58160.75,2525.0857534943243,56873.01666666667,11207.876122756514,59868.305555555555,8622.403576405686,55869.81443298969,13070.833592021098,53587.26666666667,2419.096069930989
1581.496062992126,64660.09523809524,789.4818617152166,52767.34693877551,15717.045150644208,58145.80952380953,4740.926668701441,30129.037037037036,7646.463944234623,33560.54838709677,5783.711258792061,65451.85106382979,23.416650489445786,59457.94545454546,9030.245981585102,64615.57692307692,408.96794806485593,60129.045454545456,5797.620111086904,56861.643356643355,11978.94416025402,59600.75,2246.6988421904703,58659.833333333336,9902.12169885267,60021.694444444445,8489.539026287472,57302.865979381444,11368.26017537548,55595.53333333333,2196.0298378867465
1584.645669291339,64845.142857142855,576.0547498545012,54053.448979591834,14631.981854215474,58938.619047619046,3689.5091359690514,32525.037037037036,7426.319309059484,36780.709677419356,5197.061658615832,65535.0,0.0,60793.63636363636,7901.349473610962,65258.0,144.96816626683676,61027.36363636364,4924.621125670986,58363.26573426573,10559.346318340167,60842.6875,1978.68579234899,60074.45,8719.524880834964,60071.194444444445,8259.072855618455,58507.64948453608,9772.266338076013,57210.86666666667,1988.215845648779
1587.7952755905512,64866.666666666664,469.8742824094986,55192.71428571428,13491.31016920272,59704.76190476191,2681.6351604546894,34508.11111111111,7128.308553893144,39455.1935483871,4654.7616578694215,65401.085106382976,23.743155598080058,61690.10909090909,6904.754750888504,65529.5,15.959684785782533,61556.86363636364,4308.313552101697,59580.41258741259,9310.036535068866,61916.625,1720.1228471754569,61117.183333333334,7672.463883898198,60098.583333333336,7981.800887626941,59480.61855670103,8349.695802154807,58503.53333333333,1784.1328002390653
1590.9448818897638,64841.57142857143,429.8055564165389,56227.36734693877,12421.802455054707,60440.23809523809,1834.701115006446,36162.37037037037,6851.83645643916,41609.903225806454,4281.077776228624,65009.63829787234,47.55754656624578,62112.09090909091,6045.621565977172,65431.96153846154,55.178368649896726,61865.318181818184,3845.287888340076,60440.97902097902,8268.164327661265,62851.6875,1470.044205064511,61821.683333333334,6765.882079698764,60161.72222222222,7725.290079455165,60233.0,7157.8888251348035,59569.666666666664,1576.281813495149
1594.0944881889764,64842.80952380953,457.40849920764725,57189.08163265306,11531.010520591384,61136.619047619046,1238.570546126633,37586.77777777778,6677.437484396592,43307.903225806454,4118.1267222260385,64350.17021276596,70.42524908344568,62086.32727272727,5310.49889474373,65013.38461538462,100.0284870666955,62075.0,3448.433333347979,60898.769230769234,7443.404603647359,63664.125,1226.8087603106687,62246.11666666667,5998.0691062254,60275.694444444445,7551.738294442341,60785.34020618557,6230.697534855764,60509.13333333333,1360.848013392956
1597.244094488189,64881.71428571428,582.2844291775154,58089.816326530614,10889.564762715088,61781.19047619047,928.0824377919606,38878.0,6653.638636949794,44637.32258064516,4126.985601381018,63445.27659574468,92.1445908475023,61697.181818181816,4690.73515498529,64355.307692307695,142.7288362947697,62261.40909090909,3081.721075501494,60939.769230769234,6818.690035475466,64353.25,989.0601283541865,62461.85,5371.960436144332,60403.5,7504.923870736835,61162.8969072165,5573.40062488373,61405.066666666666,1136.4527540651318
1600.3937007874017,64903.52380952381,811.927490255815,58919.38775510204,10524.23674253441,62356.380952380954,842.2156988840283,40117.333333333336,6791.111276541592,45698.41935483871,4243.21083367068,62343.936170212764,112.46586323788819,61072.236363636366,4213.731768499213,63559.192307692305,185.17954265455856,62443.77272727273,2789.8608784443677,60584.12587412587,6361.180427539228,64900.5,755.133349150996,62541.15,4904.264004669814,60458.083333333336,7599.301822371579,61391.927835051545,5171.189358991293,62306.13333333333,905.7702333128174
1603.5433070866145,64797.619047619046,1129.1478234740728,59649.02040816326,10418.79181073803,62844.09523809524,879.1739036359456,41363.444444444445,7062.588190643518,46592.83870967742,4421.116543376172,61107.89361702128,131.70409031638349,60359.0,3946.289295021337,62723.03846153846,221.0583773871005,62592.27272727273,2690.4121377726465,59884.006993006995,6035.153808268816,65275.25,525.1709840613817,62544.98333333333,4619.538326469672,60316.944444444445,7816.148777955535,61497.721649484534,5000.178616896751,63216.26666666667,675.118208579472
1606.6929133858268,64420.857142857145,1509.3608008726358,60240.69387755102,10519.053432242405,63230.04761904762,977.3832643090806,42650.666666666664,7409.451491669772,47414.0,4629.3781997293145,59796.34042553192,150.13076237928348,59694.836363636365,3935.6972433617093,61919.38461538462,230.79895962355118,62644.40909090909,2879.8084636291496,58917.846153846156,5810.445245276762,65443.4375,305.33833053475286,62515.55,4522.179325004704,59844.75,8105.799252438549,61504.50515463918,5026.65021397797,64092.26666666667,455.7965140522931
1609.8425196850394,63627.333333333336,1926.488449493468,60658.32653061225,10741.28968121737,63506.95238095238,1086.030319500926,43991.444444444445,7755.117509119183,48240.67741935484,4826.551205685382,58448.936170212764,168.63133706595545,59178.30909090909,4143.5954210750015,61173.192307692305,190.9331375580244,62531.454545454544,3309.149378854065,57780.153846153844,5662.786019337733,65376.1875,131.76030260951134,62471.25,4568.99639828048,58921.305555555555,8402.393292718729,61435.69072164949,5197.220280747675,64848.6,261.5881750640371
1612.992125984252,62301.52380952381,2355.2776930412833,60880.32653061225,10990.757407165971,63678.52380952381,1143.5210293961372,45381.851851851854,8020.952671337109,49133.22580645161,4952.281785651471,57073.70212765958,188.26225651870757,58843.61818181818,4462.957765636063,60449.42307692308,162.95166179833893,62202.09090909091,3823.6070655515236,56184.293706293705,7292.377340098356,65062.5,193.0262287876961,62406.13333333333,4678.329860347839,57467.666666666664,8644.340251799955,61314.32989690721,5440.740153411228,65370.6,106.12118858487528
1616.1417322834643,60382.28571428572,2772.609122638598,60907.95918367347,11183.579984228669,63762.0,1101.9120179207118,46808.74074074074,8142.684940724143,50131.0,4943.31745732266,55639.65957446808,210.87036217157714,58646.74545454545,4794.6313621427635,59648.38461538462,384.84363227390827,61642.22727272727,4274.061363534243,54996.32167832168,7188.058321131765,64509.8125,368.390794325469,62295.166666666664,4766.7502597565235,55467.166666666664,8796.84739772658,61162.9587628866,5683.8024605602395,65533.6,5.238320341483518
1619.291338582677,57882.23809523809,3160.3957242387933,60768.61224489796,11265.809002566084,63785.0,946.70903661051,48254.666666666664,8083.400558712441,51254.16129032258,4756.415138945026,54079.31914893617,238.1303153320189,58464.509090909094,5087.790261088447,58616.230769230766,803.2116450510179,60885.454545454544,4564.008851151412,53889.74125874126,7108.401905234375,63744.5625,541.480605464083,62102.23333333333,4780.9332783696345,52974.194444444445,8866.465341760255,61002.907216494845,5870.609081806692,65221.666666666664,67.4997942383695
1622.4409448818897,54888.19047619047,3505.650223215138,60514.510204081635,11224.54302532833,63783.76190476191,707.5649662086838,49703.18518518518,7840.113108769479,52502.51612903226,4388.62299567039,52298.40425531915,270.9017769374164,58107.05454545454,5330.49209196293,57164.269230769234,1347.6888923604424,60006.5,4655.463786582581,52898.846153846156,7050.834032209093,62807.75,702.6846287631457,61791.13333333333,4709.854815408032,50111.166666666664,8906.394661203327,60852.278350515466,5973.314367314717,64350.53333333333,117.17216203328995
1625.5905511811025,51550.90476190476,3800.3640415192544,60213.4693877551,11086.556140902794,63796.380952380954,472.83395617635017,51139.22222222222,7443.144752217919,53859.3870967742,3887.0011716258336,50192.1914893617,308.34283477544324,57346.43636363636,5519.7985298004105,55099.92307692308,1963.23275243581,59108.59090909091,4566.166899142699,52019.72727272727,7013.756197826021,61742.0,852.4505117600669,61335.816666666666,4580.933869462524,47051.27777777778,9005.42669299126,60723.154639175256,5993.800302718654,62879.4,195.74534477223207
1628.740157480315,48059.42857142857,4039.4988087447605,59936.755102040814,10907.339024394825,63855.80952380953,405.0259978778104,52549.40740740741,6950.54399821023,55293.58064516129,3351.000031518695,47665.425531914894,347.73429234334304,55950.8,5644.598403944977,52259.53846153846,2580.185894179082,58296.13636363636,4364.057872871142,51209.34965034965,6993.133849611618,60580.125,992.964493008184,60729.683333333334,4445.872777050893,43991.944444444445,9259.422870017464,60619.31958762887,5955.642900794276,60821.13333333333,319.67522407732645
1631.8897637795276,44611.09523809524,4221.510662860393,59744.42857142857,10750.952880407145,63982.666666666664,504.1242603180985,53919.92592592593,6434.465409466752,56761.87096774193,2919.5268920962617,44653.14893617021,385.20356479224785,53726.30909090909,5702.959218679137,48542.730769230766,3119.7307151751256,57647.318181818184,4149.916169869236,50389.468531468534,6979.342768468889,59332.4375,1125.657583856543,59990.78333333333,4361.6338876299815,41121.22222222222,9730.171370282322,60534.010309278354,5891.609502136653,58243.4,477.16688904407437
1635.03937007874,41376.90476190476,4346.617172937198,59673.22448979592,10670.148395703738,64180.380952380954,571.9279405318451,55235.333333333336,5967.214884808614,58213.06451612903,2718.5666637982395,41135.51063829787,415.96531526540514,50553.4,5754.928346761898,43937.61538461538,3506.041325362257,57190.22727272727,4024.1765722580744,49456.307692307695,6959.078424670183,57977.8125,1250.525350540224,59162.86666666667,4372.239858724842,38586.22222222222,10414.97850616844,60449.8969072165,5831.435250618441,55260.53333333333,650.795499540541
1638.1889763779527,38473.90476190476,4417.579954861753,59728.04081632653,10689.916811037654,64432.380952380954,517.7884727321873,56476.555555555555,5606.499240024479,59591.58064516129,2766.8189464086795,37147.97872340425,435.52157478189076,46415.818181818184,5976.2452276900085,38536.07692307692,3678.8527886063457,56886.13636363636,4041.124250586424,48294.0,6921.83406613889,56462.5625,1364.498441220711,58309.683333333334,4500.9383225118245,36466.694444444445,11246.458847169639,60340.16494845361,5794.583527869091,52018.86666666667,823.86130440074
1641.3385826771653,35946.380952380954,4438.9035913128955,59879.34693877551,10802.891135230118,64702.666666666664,354.14125959288015,57622.37037037037,5383.764517634877,60841.12903225807,2962.974015344843,32781.17021276596,440.4709915895366,41416.181818181816,6623.3092939485905,32533.80769230769,3604.83736984316,56627.454545454544,4187.0809177242145,46790.55244755245,6870.170999468249,54703.875,1463.5679807836054,57506.21666666667,4752.801170859372,34760.38888888889,12114.099210510818,60172.0618556701,5789.857461013552,48678.2,984.5277852859208
1644.4881889763778,33761.80952380953,4416.569414408682,60068.12244897959,10975.294266210096,64941.380952380954,299.23672364876165,58650.666666666664,5302.237626875266,61909.77419354839,3192.075547954678,28172.936170212764,428.7168586164164,35773.145454545454,7854.311863656182,26215.76923076923,3285.1620649367374,56251.0,4416.886604015013,44854.36363636364,6828.963903378224,52604.0,1541.1930849183045,56825.5,5121.977575442256,33382.22222222222,12891.381460131308,59910.68041237113,5819.281020787249,45389.6,1123.9963701009003
1647.6377952755906,31819.714285714286,4355.226167030411,60217.510204081635,11156.966139303702,65092.0,598.6615229389802,59540.51851851852,5341.585846990403,62753.58064516129,3396.8384330536755,23492.574468085106,400.0196135979021,29803.581818181818,9594.482127652916,19926.576923076922,2757.19298692706,55563.454545454544,4717.714553845988,42429.27272727273,6849.517470812269,50065.5,1589.6196479032335,56324.88333333333,5593.1991802297025,32179.444444444445,13455.0319757753,59525.24742268041,5881.404390864915,42276.73333333333,1237.9649142398541
1650.7874015748032,29974.809523809523,4258.252554847079,60247.08163265306,11292.663767815278,65102.0,994.7474912904136,60275.96296296296,5467.267788640166,63339.74193548387,3573.431349672477,18921.44680851064,355.8641749325895,23889.2,11605.206354203112,14033.884615384615,2091.196958073443,54376.72727272727,5146.834421465633,39505.244755244756,7002.357229695061,47013.4375,1601.3114925253456,56032.46666666667,6139.766731363297,30958.38888888889,13700.447424319515,58992.64948453608,5971.035058593555,39421.26666666667,1324.1101901109118
1653.9370078740158,28066.904761904763,4126.186408373233,60089.93877551021,11332.499629534273,64930.0,1359.6704782864888,60846.62962962963,5637.620460390925,63649.77419354839,3740.5926019185217,14632.148936170213,299.86812553459936,18433.2,13607.03827556634,8884.961538461539,1380.8099206560794,52545.86363636364,5817.012387623788,36124.6993006993,7355.620348670515,43413.8125,1568.7658452885025,55938.433333333334,6724.17855049142,29519.13888888889,13554.900745881903,58300.81443298969,6076.396282336916,36852.46666666667,1383.156962250569
1657.0866141732283,25954.809523809523,3958.499747307445,59705.97959183674,11240.148879633143,64556.47619047619,1640.051701247994,61247.666666666664,5810.82097214932,63679.32258064516,3910.7683956389983,10771.68085106383,236.77065897713587,13814.127272727274,15347.347224792535,4767.576923076923,730.7224124678538,50000.181818181816,6831.62001043253,32381.53846153846,7946.417059322305,39287.125,1488.1356992475519,55990.066666666666,7300.478824174632,27693.166666666668,12989.174872219983,57449.536082474224,6177.854749040678,34549.8,1416.7510343505428
1660.236220472441,23544.238095238095,3755.2655083960112,59091.244897959186,11000.137988987217,63984.28571428572,1814.7696205056454,61476.81481481482,5951.393668321402,63438.06451612903,4076.545121162027,7448.553191489362,172.42041747471444,10341.89090909091,16632.876328822906,1877.8461538461538,243.4052796829083,46766.5,8213.737742620315,28414.559440559442,8763.58571408674,34715.5625,1358.5428760601374,56094.98333333333,7820.647069332279,25374.972222222223,12026.978985888607,56447.75257731959,6249.241344521827,32447.8,1427.5941159867534
1663.3858267716537,20808.85714285714,3519.583813135734,58277.38775510204,10621.648933858423,63238.42857142857,1889.9481870304974,61531.18518518518,6035.589467895054,62946.67741935484,4214.028310965548,4729.148936170212,113.00762141939042,8222.672727272728,17348.585603395655,299.65384615384613,59.259496030783836,42971.86363636364,9895.721014180617,24394.517482517484,9753.995595030594,29839.5625,1185.4457478492004,56129.45,8239.280780555628,22545.027777777777,10748.869846242003,55310.0206185567,6262.037086587852,30452.4,1418.3706520746496
1666.5354330708662,17796.52380952381,3258.6911865706306,57326.102040816324,10135.93007370194,62359.04761904762,1892.0076884015355,61398.96296296296,6054.649462168671,62233.16129032258,4297.076816573544,2639.531914893617,64.15733687628087,7538.218181818182,17468.54435179355,0.0,0.0,38832.681818181816,11750.395669881093,20506.937062937064,10841.359816018217,24845.1875,979.5294290340388,55952.05,8518.969958128739,19276.916666666668,9287.688515732956,54049.68041237113,6191.595127061472,28456.8,1392.3385699366852
1669.6850393700788,14623.666666666666,2982.1468829931955,56313.795918367345,9590.244271281128,61389.857142857145,1860.7305857982694,61058.48148148148,6015.706660071402,61328.58064516129,4310.15099484172,1173.7659574468084,30.50232831430961,8238.290909090909,17055.967484269626,836.1538461538462,335.4040837680484,34624.045454545456,13629.205704453125,16932.972027972028,11944.584522945579,19944.0,757.7181204115419,55422.433333333334,8636.048817537385,15730.694444444445,7813.028146839257,52673.21649484536,6023.408892403764,26362.4,1351.814770348857
1672.8346456692914,11455.190476190477,2700.4941279601762,55313.836734693876,9037.431593659736,60365.0,1844.5237351478593,60473.2962962963,5937.6400712667155,60262.354838709674,4256.816018578319,305.531914893617,13.124365944287193,10155.145454545454,16251.991976837995,2581.6923076923076,940.5618521039094,30641.272727272728,15388.155200383,13829.923076923076,12989.894617851756,15348.375,543.5813962738239,54418.35,8591.467288003449,12129.972222222223,6499.162456664496,51174.9793814433,5762.840114487117,24095.733333333334,1296.4328735247175
1675.984251968504,8476.952380952382,2422.895738499118,54376.163265306124,8524.907967297679,59295.09523809524,1898.825775120782,59593.92592592593,5847.641094055227,59058.45161290323,4161.187941726301,0.0,0.0,13023.672727272728,15251.681175952128,4952.7692307692305,1755.021965843082,27153.454545454544,16906.84465676354,11314.902097902097,13917.205053741847,11245.6875,370.0675138994911,52853.333333333336,8424.409347577763,8730.25,5466.311057412383,49535.0,5448.458387849146,21621.866666666665,1225.0291896749056
1679.1338582677165,5864.523809523809,2155.334260211773,53512.489795918365,8086.7396021358945,58156.666666666664,2076.558492940465,58364.333333333336,5775.551350945415,57735.12903225807,4065.048662502328,219.80851063829786,23.097055442679856,16518.0,14264.832288470196,7645.038461538462,2692.709108811154,24363.31818181818,18103.102211264446,9452.713286713286,14684.475010376873,7775.8125,282.3637323449136,50688.55,8228.81891368176,5780.916666666667,4715.571594756862,47720.298969072166,5171.114877428848,18950.4,1136.581118970397
1682.283464566929,3754.3809523809523,1901.0786781692045,52685.5918367347,7741.668163635775,56887.619047619046,2396.73369949685,56730.7037037037,5749.9059175221855,56302.93548387097,4020.363752885438,934.8723404255319,59.54780558376235,20289.21818181818,13462.64438118362,10367.115384615385,3654.6182093232615,22376.545454545456,18941.58315771576,8253.538461538461,15267.22162100048,5016.625,288.951742294453,47939.416666666664,8158.303288249071,3490.0,4126.948529684695,45689.762886597935,5082.880046030393,16135.2,1030.6905258126708
1685.433070866142,2223.2380952380954,1660.8460524616135,51810.57142857143,7496.84584015307,55388.42857142857,2825.7986240964833,54654.666666666664,5793.986691197848,54769.645161290326,4076.2845871430286,2116.531914893617,106.84525518668411,24004.381818181817,12927.356877414384,12868.576923076924,4544.52426361048,21187.727272727272,19436.956650533302,7659.300699300699,15666.556001608591,2977.9375,323.8092549538231,44675.333333333336,8394.677825199067,1994.9166666666667,3575.0213859111695,43402.77319587629,5358.878705427817,13267.333333333334,910.4735519985679
1688.5826771653544,1277.6190476190477,1435.0737321754746,50764.28571428572,7356.858504907139,53535.380952380954,3290.9065399788074,52126.51851851852,5922.045982599885,53142.967741935485,4261.694237407579,3734.1702127659573,160.7993753492864,27379.236363636363,12634.666275354753,14961.346153846154,5280.932048725343,20685.0,19647.138836343205,7583.93006993007,15890.474013909026,1605.0625,337.818085060214,41011.3,9066.384993112377,1345.1666666666667,3092.281291107478,40829.64948453608,6094.360868261972,10460.466666666667,781.3921650205839
1691.732283464567,857.4285714285714,1222.8623942922402,49404.63265306123,7336.203210007586,51195.47619047619,3705.884157969627,49176.74074074074,6134.350740449939,51434.54838709677,4575.887813301017,5747.574468085107,217.198678014163,30202.727272727272,12486.798406833217,16528.76923076923,5808.271385292453,20672.045454545456,19662.65131358821,7896.1398601398605,15966.026821659472,792.25,321.6483911043237,37096.833333333336,10175.360649082118,1501.1944444444443,2990.031789309312,37962.14432989691,7248.501697990198,7836.8,651.5784117561498
1694.8818897637796,849.0952380952381,1024.5385909096049,47596.30612244898,7471.499792624438,48252.23809523809,3991.729174236839,45882.555555555555,6417.592241085398,49666.645161290326,4991.040311419907,8098.68085106383,271.7538080441739,32350.363636363636,12373.42884110748,17526.884615384617,6102.055948152123,20904.409090909092,19587.786996584215,8449.307692307691,15928.896542202117,402.375,290.3691346803238,33098.416666666664,11609.314800756138,2343.6111111111113,3626.0471688862044,34823.24742268041,8701.200757320474,5508.2,529.3231149307576
1698.031496062992,1111.1904761904761,842.0548347175508,45236.95918367347,7827.363960476261,44628.52380952381,4092.3952890469977,42368.148148148146,6746.9830113784865,47874.290322580644,5465.393532409162,10706.489361702128,321.5019190135259,33786.70909090909,12218.730204333056,17977.5,6169.2307228323425,21131.954545454544,19523.015341985174,9100.405594405594,15818.514480852738,287.375,276.3122950123646,29182.733333333334,13212.910471538393,3698.8333333333335,4893.043857809212,31471.113402061856,10325.231475777047,3562.4,419.93790017096575
1701.181102362205,1498.6666666666667,693.2958781091768,42282.61224489796,8483.363661479525,40309.76190476191,3984.4042860557242,38796.77777777778,7091.957658651014,46106.645161290326,5954.829574487104,13467.510638297872,364.38784997029694,34558.29090909091,11998.47736653997,17953.346153846152,6045.462220302149,21141.68181818182,19550.30320477819,9728.545454545454,15674.042452200658,312.5625,307.04172533020653,25501.083333333332,14842.048905381036,5367.25,6458.624949867855,28000.21649484536,12012.89907259641,2051.266666666667,323.8636475775295
1704.3307086614172,1889.3809523809523,633.8041214753126,38763.30612244898,9499.365083410663,35359.71428571428,3682.2174626408023,35355.48148148148,7422.361121639626,44425.45161290323,6419.682596106716,16261.021276595744,399.33074274402907,34776.96363636364,11734.510424716003,17563.346153846152,5786.0784643454435,20791.136363636364,19725.4203372553,10248.88111888112,15530.204638662504,371.875,372.93177576468327,22176.283333333333,16387.992737663822,7155.333333333333,8074.36073148966,24534.865979381444,13679.343450234048,986.0666666666667,237.2311015772501
1707.48031496063,2203.3333333333335,738.8349473089909,34789.244897959186,10881.729824841328,29924.714285714286,3234.3683735020363,32234.51851851852,7714.192400880678,42900.67741935484,6829.18457035258,18960.68085106383,426.78581535298207,34600.181818181816,11476.23579891929,16934.615384615383,5456.231434557704,20030.272727272728,20073.275194061607,10622.132867132867,15414.911899082403,398.0,444.73967104363425,19295.533333333333,17781.873139489242,8903.555555555555,9580.49612043031,21218.381443298967,15259.848705822878,338.4,154.12670112605406
1710.6299212598426,2412.4285714285716,1006.7138701371559,30544.061224489797,12572.976754358504,24228.571428571428,2714.3025337824743,29603.51851851852,7950.264451089012,41603.83870967742,7162.107353857451,21450.021276595744,447.4902347377028,34207.92727272727,11278.3250946302,16198.23076923077,5120.572769252196,18903.454545454544,20588.16601114532,10856.300699300698,15347.032046290238,366.1875,499.016184450715,16907.316666666666,18991.056886941693,10505.277777777777,10878.056989521794,18198.0412371134,16707.588921364742,45.733333333333334,71.92910089494761
1713.7795275590552,2539.285714285714,1380.530061860545,26265.469387755104,14466.672761201007,18553.238095238095,2201.4375585655475,27589.48148148148,8121.94957607616,40599.032258064515,7408.588235562879,23637.76595744681,462.6131241879026,33781.29090909091,11180.098714270212,15476.423076923076,4833.678875851401,17537.68181818182,21234.22007555121,11002.20979020979,15336.197443952793,289.0,523.0433777422289,15024.333333333334,20012.32489631216,11915.305555555555,11914.81956272068,15608.051546391753,17992.487121918264,21.6,28.215362245887725
1716.9291338582675,2646.6666666666665,1811.5824267443336,22217.755102040817,16431.266998150655,13209.761904761905,1755.8480763210073,26259.51851851852,8226.632785678343,39935.1935483871,7570.62792989205,25472.212765957447,473.538555179286,33482.70909090909,11190.47759915501,14874.076923076924,4633.568569298455,16114.772727272728,21948.21453067904,11142.713286713286,15383.06464034343,204.5625,512.6568014702916,13629.6,20863.060665683734,13145.861111111111,12677.11076475318,13553.329896907217,19100.08353019013,169.73333333333332,94.59208329570833
1720.0787401574803,2818.6666666666665,2261.143228195131,18657.163265306124,18331.88915896585,8503.380952380952,1391.2235271495128,25611.37037037037,8266.869088687232,39637.709677419356,7659.911854936075,26948.936170212764,481.46122462704636,33442.454545454544,11286.095076071073,14473.846153846154,4537.73892943567,14836.772727272728,22646.957367244755,11377.895104895106,15481.247193534466,164.6875,469.9792174594,12684.916666666666,21570.931018612104,14253.0,13181.400659009396,12096.505154639175,20030.375995937604,396.6,156.33673059563878
1723.2283464566929,3138.8571428571427,2691.5686395662656,15798.387755102041,20047.720396457647,4695.857142857143,1072.7524582748315,25574.074074074073,8247.178960670604,39704.77419354839,7695.806305446294,28112.340425531915,487.46200186208705,33747.836363636365,11419.929579091324,14332.846153846154,4544.5814708905955,13889.0,23241.47276666512,11808.622377622378,15619.034768581465,218.625,404.28577068083905,12139.716666666667,22165.978984389316,15315.333333333334,13465.451983172008,11250.59793814433,20796.13204701049,622.2666666666667,198.1109004797285
1726.3779527559054,3669.0476190476193,3066.5233529068228,13787.285714285714,21485.851109936688,1973.0,750.7332923152378,26020.74074074074,8173.026161495406,40104.74193548387,7701.349672110231,29047.85106382979,491.699353684507,34440.32727272727,11536.18813686983,14482.576923076924,4635.402282543115,13409.272727272728,23652.529513355767,12519.874125874127,15782.368304498566,403.8125,330.2707636829969,11939.433333333332,22672.664067379064,16411.805555555555,13578.133241476991,10977.907216494845,21419.874507550834,789.6666666666666,216.69692096464027
1729.5275590551182,4435.0952380952385,3351.3049470426536,12681.163265306122,22590.877279536056,420.7142857142857,400.4387050006343,26786.51851851852,8049.833439134329,40779.290322580644,7699.597187593431,29868.255319148935,494.4502844051183,35515.94545454546,11583.77527785885,14930.846153846154,4782.450536093135,13467.045454545454,23826.049963465834,13567.916083916083,15956.829270584443,737.5,271.92393237815605,12030.633333333333,23106.774726593838,17600.027777777777,13570.699546953092,11195.731958762886,21930.697917409034,868.8666666666667,215.16315256619157
1732.6771653543308,5419.380952380952,3518.7665516984034,12444.469387755102,23350.083070343022,14.333333333333334,44.58628161146103,27695.48148148148,7880.538651313263,41649.32258064516,7710.069990005307,30693.72340425532,495.57332807042184,36930.454545454544,11526.683785213227,15663.0,4954.27693241677,14055.863636363636,23740.12738208809,14971.937062937062,16129.027772006744,1214.5,256.9883265831349,12364.7,23473.21839409046,18902.0,13489.655703538174,11787.814432989691,22359.301281583386,858.0666666666667,204.9150935279184
1735.8267716535431,6561.809523809524,3552.708123578107,12955.040816326531,23793.803897584374,621.0,312.19392630070115,28586.48148148148,7668.509089586089,42624.06451612903,7748.65144535771,31632.382978723403,494.82597642435746,38608.63636363636,11347.901477387608,16646.615384615383,5122.251811586559,15102.181818181818,23408.486581961068,16711.16083916084,16287.408265991304,1810.875,291.3758043746941,12898.5,23768.777249787167,20298.63888888889,13370.168851573968,12621.927835051547,22732.83217203265,778.7333333333333,207.12877368653753
1738.976377952756,7772.952380952381,3452.4700678153604,14026.65306122449,23986.310989387955,2023.0,589.6272430224758,29337.333333333332,7416.822345432288,43611.12903225807,7826.970310497874,32761.76595744681,492.20676388645114,40454.836363636365,11051.45837149376,17835.923076923078,5266.028688483286,16483.045454545456,22874.618298806996,18728.083916083917,16421.53057971061,2491.3125,352.3367917827345,13593.65,23984.709445689903,21732.13888888889,13234.915476690976,13564.814432989691,23071.03285455322,672.0666666666667,236.7410587306074
1742.1259842519685,8949.809523809523,3234.926695556421,15436.775510204081,24013.181566581385,3945.4761904761904,774.2874216580484,29880.48148148148,7131.435933378304,44527.67741935484,7951.146451672345,34117.10638297872,487.4352432295353,42365.836363636365,10658.389501000667,19177.03846153846,5374.240550861183,18052.863636363636,22200.243641774126,20937.566433566433,16520.99190437208,3216.25,418.17856532825783,14413.85,24111.42055252725,23119.11111111111,13093.932973323048,14500.092783505155,23382.83073137232,589.2666666666667,285.9185120896434
1745.275590551181,9996.285714285714,2934.6318523527852,16958.877551020407,23961.50785997788,6095.952380952381,869.2456212793819,30210.333333333332,6822.496377046661,45309.06451612903,8121.262876272082,35687.063829787236,480.9108115770695,44242.4,10201.751980731722,20615.0,5445.583475130593,19672.045454545456,21451.46699894963,23238.377622377622,16574.905382258683,3951.375,478.99815696409524,15322.983333333334,24141.90280576607,24367.277777777777,12948.368100976859,15340.577319587628,23664.921745776228,585.5333333333333,334.0887839415678
1748.4251968503936,10841.619047619048,2601.1584319699978,18395.244897959183,23899.831430137834,8204.57142857143,916.7990158012549,30378.37037037037,6504.18027487023,45915.12903225807,8327.766051151144,37418.78723404255,473.199653610879,46000.96363636364,9718.743403554403,22100.26923076923,5485.493278132594,21231.136363636364,20687.080518780214,25526.76923076923,16570.415790324274,4674.0,533.4677825323662,16285.35,24074.380107509172,25395.166666666668,12794.754308135638,16035.731958762886,23903.123840846292,711.7333333333333,364.2262056591877
1751.5748031496064,11453.809523809523,2291.078382376956,19602.224489795917,23863.452020555607,10059.047619047618,980.40989854295,30479.074074074073,6192.87158263091,46332.67741935484,8552.431008432995,39229.914893617024,465.0577099758344,47581.63636363636,9241.98263924642,23594.23076923077,5504.1826634750605,22667.636363636364,19947.827563525112,27709.965034965036,16494.788100103284,5373.8125,584.9548293191108,17264.633333333335,23913.258148264857,26148.86111111111,12629.134597238019,16573.278350515466,24075.26771997563,1010.8666666666667,364.8551980656923
1754.724409448819,11845.761904761905,2054.086424313435,20504.714285714286,23851.323414272945,11530.57142857143,1096.9802086780292,30629.777777777777,5904.6910122899135,46573.93548387097,8771.521433246467,41025.55319148936,456.92067417639834,48953.0,8794.224005251712,25073.76923076923,5511.162339412707,23969.590909090908,19254.459992567226,29716.39160839161,16337.089430600117,6055.125,640.4839844797058,18227.133333333335,23669.25640887117,26614.305555555555,12451.236845790427,16974.577319587628,24156.473995036773,1512.5333333333333,335.27379193064814
1757.8740157480315,12072.190476190477,1912.182538084928,21100.408163265307,23833.80160391177,12583.904761904761,1243.556225575587,30945.222222222223,5651.1944350915655,46671.87096774193,8961.580047686492,42717.936170212764,449.41230674924026,50113.4,8387.088090630741,26531.884615384617,5513.578520531925,25170.81818181818,18608.194823875467,31501.88811188811,16091.098992880188,6729.9375,709.5507794328395,19143.983333333334,23358.35562027121,26821.555555555555,12265.494519279242,17285.577319587628,24124.626208667756,2233.2,290.72718024521436
1761.023622047244,12219.047619047618,1854.5793381632263,21449.938775510203,23768.250983027126,13274.238095238095,1370.01212732769,31515.51851851852,5436.414207438782,46672.06451612903,9104.736873969767,44242.10638297872,442.60237349463836,51087.09090909091,8021.820761971069,27977.19230769231,5513.762459792565,26334.227272727272,17996.723911291636,33052.195804195806,15758.03244003645,7413.25,801.8779130890188,19994.35,22999.61575173594,26839.027777777777,12081.263368644926,17564.82474226804,23965.120132155946,3174.733333333333,276.4179122673171
1764.1732283464569,12387.238095238095,1852.9182621388888,21658.428571428572,23613.819701563723,13728.285714285714,1445.7328391431356,32388.666666666668,5256.480472993594,46624.0,9193.285793306948,45567.255319148935,436.6307397529846,51917.763636363634,7693.090867108407,29427.923076923078,5508.387652711488,27530.772727272728,17401.7862613213,34380.18881118881,15347.409388895714,8116.9375,921.5789079583744,20768.033333333333,22612.494780516565,26762.916666666668,11911.848749541125,17870.94845360825,23675.112723741764,4326.733333333334,346.92390456057586
1767.3228346456692,12673.52380952381,1888.7448495167268,21851.163265306124,23341.993254994344,14114.42857142857,1484.9396836052224,33561.7037037037,5099.315254066633,46572.41935483871,9228.818278855724,46699.70212765958,431.44373735877923,52658.09090909091,7391.2487744819555,30904.846153846152,5491.769461884322,28818.0,16804.042462779875,35519.65034965035,14875.790690748081,8843.875,1068.2527717609723,21466.233333333334,22213.256987188728,26699.61111111111,11771.140965367087,18251.917525773195,23263.641116411636,5667.333333333333,490.69456442430214
1770.4724409448818,13153.047619047618,1959.518781455101,22145.938775510203,22939.949598193973,14608.857142857143,1544.4103293186442,34981.59259259259,4948.38665260192,46549.8064516129,9218.463409915905,47678.234042553195,426.62097447544835,53359.03636363636,7103.255906371736,32422.615384615383,5456.405756095118,30221.136363636364,16191.359495100674,36517.307692307695,14364.670384731033,9586.1875,1235.4780056090638,22100.466666666667,21812.194480356367,26746.944444444445,11670.234478136734,18736.453608247422,22749.815948058313,7165.533333333334,666.3803585207341
1773.6220472440946,13867.380952380952,2067.5139540311156,22629.95918367347,22411.452319284406,15359.42857142857,1687.8408459000023,36555.40740740741,4783.758333881653,46571.354838709674,9172.07549083485,48562.765957446805,421.7328595195677,54059.36363636364,6814.402972217639,33981.07692307692,5397.701433324522,31722.81818181818,15560.846292235476,37423.81118881119,13836.06014799357,10325.75,1414.2966228836156,22689.65,21411.96773989179,26977.083333333332,11614.467358464326,19331.865979381444,22159.208241479544,8783.933333333332,845.1907450721143
1776.7716535433071,14817.57142857143,2203.431535267716,23343.244897959183,21776.28601655293,16458.04761904762,1928.4220906319208,38167.51851851852,4586.432716662469,46633.51612903226,9098.490796053424,49418.21276595745,416.5355562545224,54777.65454545455,6512.998075787112,35560.03846153846,5315.6533608171685,33262.954545454544,14918.41851683309,38285.97202797203,13309.438724456291,11037.0625,1594.7378886806916,23255.133333333335,21007.949813080017,27424.666666666668,11601.628094558295,20023.371134020617,21518.750894227724,10480.533333333333,1009.0774576590023
1779.9212598425197,15966.095238095239,2341.2276776402487,24271.061224489797,21067.78345460502,17923.666666666668,2218.2709769061416,39700.2962962963,4341.159000516343,46716.32258064516,9006.533164202374,50298.46808510638,410.5127489695612,55508.58181818182,6196.773552542291,37117.46153846154,5216.979255873366,34746.681818181816,14275.95214906511,39141.58041958042,12798.575297904064,11692.9375,1769.189802874115,23815.316666666666,20591.540490770854,28081.444444444445,11622.771584371309,20780.134020618556,20851.814521962522,12211.4,1147.3447491200425
1783.0708661417325,17246.47619047619,2447.8919136395048,25347.081632653062,20331.676841249704,19698.333333333332,2490.4382351655713,41054.2962962963,4040.286566796733,46786.41935483871,8905.783871873862,51232.89361702128,403.22504323413807,56222.98181818182,5878.51028899765,38592.692307692305,5115.166835155945,36061.36363636364,13642.987401277074,40016.37762237762,12309.53404434424,12271.625,1931.4846904324663,24380.15,20154.706531250544,28899.61111111111,11665.115680899413,21561.268041237112,20175.24095872431,13933.066666666668,1256.8097425182893
1786.2204724409448,18577.095238095237,2495.9951141733677,26466.469387755104,19618.942133895613,21656.95238095238,2695.1873771098785,42164.37037037037,3686.6927781690147,46804.22580645161,8807.123988511314,52218.70212765958,394.8091871408164,56874.6,5586.216405663953,39914.846153846156,5028.117935801761,37097.22727272727,13021.969575688823,40924.52447552448,11839.6934210876,12761.1875,2079.344103880777,24948.0,19693.11640396207,29801.333333333332,11714.25176867904,22324.20618556701,19496.971834101714,15605.266666666666,1339.9757941428975
1789.3700787401574,19876.619047619046,2471.9102209808448,27503.38775510204,18976.14805520107,23630.428571428572,2812.0697100928646,43007.59259259259,3295.192955169239,46729.87096774193,8721.40169535481,53220.48936170213,385.3132393780651,57408.30909090909,5352.770208449341,41014.769230769234,4976.269875099469,37769.181818181816,12406.12475438997,41870.944055944055,11377.526090540343,13162.75,2213.741925451113,25502.966666666667,19207.987927740432,30693.972222222223,11756.665536069577,23031.75257731959,18815.84880926207,17194.333333333332,1404.7561433295896
1792.5196850393702,21080.761904761905,2381.7887816625375,28335.0,18432.490234498917,25434.714285714286,2849.597467694544,43605.11111111111,2889.948139139106,46530.45161290323,8654.08570239704,54177.914893617024,375.0111391132686,57772.490909090906,5199.268871232945,41838.38461538462,4977.43622666655,38032.681818181816,11785.05115268863,42855.04895104895,10904.78130735505,13492.4375,2337.5324588321228,26017.033333333333,18704.27462192058,31487.027777777777,11780.82668643823,23657.432989690722,18122.52728268022,18674.533333333333,1461.5696524247105
1795.6692913385828,22151.95238095238,2249.1343832512325,28861.551020408162,17990.853355288033,26904.238095238095,2838.088338917789,44012.444444444445,2501.9148271812,46183.83870967742,8601.861726831803,55018.65957446808,364.55634807114234,57930.854545454546,5121.008865157802,42360.769230769234,5042.761387204834,37892.59090909091,11153.28248323454,43874.42657342657,10400.982903048329,13777.1875,2455.368740605726,26453.3,18189.295659169067,32108.944444444445,11778.439889014835,24187.81443298969,17401.299366894604,20031.8,1520.8973754552496
1798.818897637795,23084.428571428572,2111.8301377270486,29023.081632653062,17627.227971309603,27919.04761904762,2818.063392375465,44306.92592592593,2161.093891835301,45682.58064516129,8551.275278498386,55674.55319148936,354.44153306596957,57871.36363636364,5090.937850243442,42593.769230769234,5174.4318625904925,37405.59090909091,10517.681855112938,44927.20979020979,9852.045936292283,14051.125,2572.7654351640767,26772.166666666668,17669.59624247884,32518.583333333332,11745.788820714995,24622.19587628866,16634.540904574504,21263.6,1589.857721097499
1801.968503937008,23902.85714285714,2010.9027180588819,28809.530612244896,17301.002857687647,28426.333333333332,2830.8796770671383,44570.37037037037,1889.6184633147145,45033.096774193546,8484.618573953308,56096.8085106383,345.53724055218726,57612.12727272727,5077.772915737928,42590.692307692305,5363.022854332683,36669.86363636364,9898.050387899879,46013.13986013986,9260.19706597645,14348.4375,2693.9954985288578,26939.116666666665,17150.704203318368,32711.5,11686.323470193694,24969.711340206184,15807.506808611673,22379.133333333335,1671.5595858026986
1805.1181102362204,24654.14285714286,1974.5890539483878,28261.20408163265,16969.76189144174,28448.238095238095,2913.89039413375,44872.48148148148,1696.1939173374665,44254.51612903226,8385.491506055381,56268.04255319149,338.45317457621115,57200.29090909091,5067.5655825606955,42441.153846153844,5589.107323056075,35809.36363636364,9318.44957619733,47131.804195804194,8654.528667995573,14697.0625,2822.108220567339,26930.883333333335,16637.64237514004,32719.416666666668,11612.088524883118,25244.907216494845,14913.828005408148,23397.6,1765.554976015568
1808.267716535433,25394.666666666668,2006.0530385936445,27461.551020408162,16601.77503303177,28077.714285714286,3095.925634994317,45257.96296296296,1575.5793403975304,43374.709677419356,8246.056180297102,56207.82978723404,333.9584200866378,56707.01818181818,5073.357505783286,42260.92307692308,5824.567319176705,34955.954545454544,8791.637982027285,48279.86713286713,8096.7945744564695,15113.25,2958.338712436424,26741.8,16135.677909320491,32602.277777777777,11543.6733095837,25463.39175257732,13960.710147621838,24345.2,1869.5807444451282
1811.4173228346456,26176.04761904762,2085.808384483111,26523.061224489797,16180.801264698857,27462.571428571428,3393.2258085419394,45740.59259259259,1515.4422715707942,42426.54838709677,8068.503881936228,55969.744680851065,332.327156680659,56215.836363636365,5129.689534336136,42175.807692307695,6038.109561642813,34227.40909090909,8306.200168653264,49447.44055944056,7676.63299829572,15599.5625,3101.1359404408167,26386.95,15649.023717605092,32436.333333333332,11505.937327214056,25637.494845360823,12969.965478674749,25251.733333333334,1979.0933097984262
1814.5669291338584,27033.14285714286,2186.7563995608675,25569.979591836734,15702.982569276835,26779.809523809523,3799.434263890294,46303.40740740741,1501.7162837840465,41441.645161290326,7863.246815851117,55633.48936170213,333.5137160942513,55809.87272727273,5272.191688660749,42301.96153846154,6199.298499276841,33711.681818181816,7824.899182541724,50614.3006993007,7485.115583689293,16143.8125,3247.4448074361094,25901.866666666665,15179.194022813672,32298.972222222223,11521.909974975963,25774.05154639175,11976.108154284353,26145.4,2090.669551443588
1817.716535433071,27975.095238095237,2287.053061302999,24719.285714285714,15171.773868817403,26207.761904761905,4283.507340227964,46906.40740740741,1520.804009075201,40448.74193548387,7643.8193711366575,55289.36170212766,336.71570340014097,55557.27272727273,5517.772200163083,42727.153846153844,6283.542966121947,33456.40909090909,7300.27293798035,51748.77622377622,7571.827520874219,16722.8125,3392.2911914138135,25339.283333333333,14720.955842031983,32254.583333333332,11604.90164728058,25874.061855670105,11020.204824199407,27049.133333333335,2199.8826898016378
1820.8661417322835,28981.333333333332,2375.375946853232,24064.73469387755,14593.664837133687,25897.666666666668,4796.096958126059,47499.22222222222,1561.630399989972,39469.096774193546,7422.47050583494,55022.85106382979,340.6292037006837,55500.03636363636,5858.553085295305,43496.61538461538,6276.251668465595,33466.59090909091,6696.179233909784,52807.9020979021,7912.436411273277,17306.0625,3530.068208773557,24763.783333333333,14262.130931352984,32343.13888888889,11754.462193266523,25934.123711340206,10141.533275623158,27977.266666666666,2303.4667631396137
1824.015748031496,30006.761904761905,2449.825706234977,23666.469387755104,13976.754277249564,25952.285714285714,5283.359962163842,48035.11111111111,1619.6173149585616,38516.354838709674,7208.8244290094235,54899.085106382976,344.2065702011941,55646.8,6273.027285421,44606.07692307692,6175.006632964839,33709.09090909091,6009.639823643123,53741.51748251748,8420.97785781807,17862.9375,3656.3550406919935,24243.1,13784.911953170635,32573.527777777777,11958.476817922254,25949.319587628866,9368.848903918863,28935.066666666666,2399.6382356976687
1827.1653543307089,30989.0,2514.5632016789905,23546.244897959183,13333.273692855644,26414.285714285714,5699.152795375292,48485.03703703704,1704.6076442543842,37597.16129032258,7010.738385927755,54952.59574468085,345.8276941259122,55972.07272727273,6740.1493775045055,46002.192307692305,5989.715422925628,34124.545454545456,5287.613387800112,54498.55244755245,8992.266266680812,18367.375,3767.1465971441835,23840.133333333335,13271.164169565367,32923.77777777778,12197.186574760026,25916.505154639177,8714.738115108328,29918.0,2489.012575299691
1830.3149606299207,31861.95238095238,2576.9255486813568,23689.571428571428,12679.972978468599,27264.095238095237,6014.3708367840345,48845.555555555555,1840.7325098556569,36712.1935483871,6836.494307329738,55183.17021276596,344.7122956500031,56422.12727272727,7246.323356282251,47592.730769230766,5739.398082603412,34642.22727272727,4636.664846944684,55035.25174825175,9538.505511408393,18802.5625,3860.9866447701875,23605.116666666665,12708.154397986184,33346.86111111111,12451.578222486894,25838.082474226805,8175.581912099313,30915.733333333334,2574.6250592184397
1833.464566929134,32569.95238095238,2644.2067399215803,24053.85714285714,12035.020224159092,28430.14285714286,6219.890370230578,49143.11111111111,2054.8909556242083,35859.83870967742,6695.178010097166,55559.063829787236,340.46397655260614,56925.490909090906,7782.451756408545,49263.03846153846,5449.546011301303,35194.681818181816,4216.088206192643,55323.82517482517,10005.177752071928,19162.25,3937.489801574094,23569.983333333334,12091.841514690344,33780.166666666664,12706.629375382492,25723.546391752578,7735.698350472136,31914.333333333332,2661.2386506203375
1836.6141732283463,33079.95238095238,2721.914635591409,24580.571428571428,11410.94729116004,29807.095238095237,6326.736847205426,49429.555555555555,2358.93228096375,35037.6129032258,6594.258923744343,56025.48936170213,333.3846971140177,57407.181818181816,8336.254306212786,50896.846153846156,5146.2562545864175,35732.27272727273,4174.916310340497,55359.12587412587,10372.71551451185,19451.6875,3998.349842728091,23745.9,11428.366597637654,34159.36111111111,12952.805753865707,25590.76288659794,7374.7334067114525,32901.6,2754.196695953286
1839.763779527559,33389.90476190476,2810.1162644099145,25207.877551020407,10809.8230113183,31277.04761904762,6361.205250251533,49773.59259259259,2739.6556320397926,34245.51612903226,6536.402176352843,56518.744680851065,324.5895914801314,57803.527272727275,8889.83017908062,52395.96153846154,4852.2916987017525,36228.86363636364,4535.694918146047,55163.27972027972,10651.465889073308,19684.1875,4046.2521581512624,24122.583333333332,10730.902304857167,34431.11111111111,13185.652022764443,25464.371134020617,7073.396236311649,33870.73333333333,2858.4252416710533
1842.913385826772,33531.28571428572,2905.147634030017,25883.367346938776,10222.993799880893,32733.761904761905,6357.782504292049,50244.92592592593,3166.5734831427267,33486.87096774193,6517.136377581479,56979.40425531915,315.37715749758087,58073.69090909091,9422.005211925629,53695.92307692308,4583.051132857949,36684.63636363636,5183.587942600925,54784.79020979021,10873.031649760214,19878.1875,4084.567422303585,24672.516666666666,10018.179923671543,34563.444444444445,13403.614538301154,25373.22680412371,6819.554991233429,34823.13333333333,2976.209644646843
1846.062992125984,33564.95238095238,2999.4378120255496,26571.673469387755,9640.37552064711,34099.666666666664,6351.013899808089,50900.2962962963,3604.27759048128,32768.54838709677,6525.674983447626,57363.95744680851,307.35667529565774,58207.0,9915.649911308707,54774.346153846156,4344.8205853221425,37121.954545454544,5978.248508150745,54293.27972027972,11080.639206402122,20052.75,4116.957045258063,25355.716666666667,9310.717493103788,34553.194444444445,13608.080156492491,25346.865979381444,6611.942937974294,35767.333333333336,3107.355803394405
1849.2125984251968,33571.619047619046,3085.0283548313423,27259.571428571428,9062.981279549758,35337.19047619047,6367.131922310058,51768.7037037037,4022.6957224194166,32100.8064516129,6548.634309333339,57651.85106382979,302.18952618002965,58222.72727272727,10363.88694449853,55650.230769230766,4135.818534068627,37574.09090909091,6824.663440979682,53769.95104895105,11318.992860463608,20224.25,4146.5586710548305,26126.416666666668,8631.162189592753,34426.13888888889,13803.240105039702,25411.80412371134,6463.233434245587,36719.26666666667,3250.246666878616
1852.362204724409,33637.666666666664,3155.6734747697014,27954.448979591838,8512.902903195456,36450.80952380953,6418.026425764704,52842.59259259259,4402.017797087043,31494.225806451614,6572.830679590023,57845.765957446805,300.94476857842466,58163.490909090906,10771.4920345288,56372.92307692308,3948.132352265552,38074.454545454544,7672.919289928186,53294.496503496506,11623.631437225173,20404.625,4175.866704574632,26939.733333333334,8003.9156456213495,34233.916666666664,13994.460055431062,25587.628865979383,6399.321053419164,37696.26666666667,3401.0680962832184
1855.5118110236224,33839.90476190476,3208.8731727116847,28678.224489795917,8034.129627282077,37480.0,6495.770528729041,54073.62962962963,4734.030912197406,30958.09677419355,6587.918484496957,57965.936170212764,303.55562456056384,58083.09090909091,11150.699006662768,57005.57692307692,3772.134502588859,38642.72727272727,8502.969947354855,52930.307692307695,12013.288944995656,20600.875,4205.348214996589,27757.2,7455.737497167309,34044.27777777778,14186.66994558842,25885.278350515466,6451.370030701729,38711.46666666667,3555.5525752765284
1858.6614173228347,34230.95238095238,3246.266785917552,29459.448979591838,7680.271702945827,38484.95238095238,6574.78120205344,55376.333333333336,5020.116731710528,30496.645161290322,6587.35390875963,58040.0,309.03914232563113,58031.03636363636,11513.880298402895,57603.730769230766,3601.0500344471357,39276.09090909091,9308.208556816402,52711.755244755244,12483.097759265032,20816.25,4234.906071862752,28550.116666666665,7012.122270496207,33930.88888888889,14382.148465638029,26305.309278350516,6641.265261641107,39768.066666666666,3709.300643277951
1861.8110236220475,34828.57142857143,3272.2539570124554,30323.020408163266,7495.431034125963,39530.0,6617.420580774441,56637.7037037037,5267.719056703447,30107.41935483871,6568.972997622715,58090.55319148936,315.3997671655961,58036.6,11866.47054458294,58196.307692307695,3434.553389051991,39941.5,10085.156048506502,52634.62237762238,13003.130392227147,21052.0,4263.274299174286,29301.516666666666,6692.364035455302,33959.916666666664,14578.095061836588,26839.25773195876,6966.939877985969,40853.26666666667,3858.6325983292177
1864.96062992126,35612.23809523809,3293.201032209961,31281.591836734693,7496.185946984646,40664.619047619046,6583.737782461314,57730.40740740741,5485.44576168515,29779.129032258064,6536.703049515423,58125.382978723406,319.12037035279644,58098.36363636364,12203.628538436107,58770.307692307695,3282.6971060304713,40578.59090909091,10826.117618808737,52652.03496503497,13520.646219304337,21309.5625,4288.889686864626,30004.666666666668,6504.7835389726,34179.833333333336,14765.986606800854,27470.690721649484,7399.070720922518,41934.666666666664,3999.8234572151914
1868.1102362204724,36523.57142857143,3315.71224225948,32329.244897959183,7668.021303800297,41911.09523809524,6443.7919988360145,58528.666666666664,5677.542902295623,29490.516129032258,6499.4950814856375,58130.70212765958,316.5602302203724,58177.145454545454,12511.056501304874,59267.07692307692,3165.636124226206,41102.681818181816,11513.816393542798,52677.67132867133,13967.368005600169,21592.5625,4310.402648952155,30661.0,6444.00306227943,34613.72222222222,14934.106048853244,28178.092783505155,7889.837313052962,42960.333333333336,4131.314926536372
1871.259842519685,37475.23809523809,3345.3895054702757,33439.510204081635,7976.372333137079,43256.04761904762,6183.994975327461,58923.37037037037,5841.884140178598,29211.451612903227,6469.889677668939,58070.89361702128,303.6902280945316,58199.34545454545,12768.616767425847,59586.230769230766,3112.4260918959653,41417.59090909091,12119.851006656547,52595.6013986014,14270.230125478844,21906.3125,4326.986042829783,31276.366666666665,6493.829930445943,35256.25,15070.592446466728,28937.546391752578,8388.69710343678,43861.2,4252.604287570931
1874.409448818897,38365.52380952381,3386.1139915423437,34567.22448979592,8380.248893740143,44652.28571428572,5813.315004963931,58833.7037037037,5968.52141138276,28904.74193548387,6457.207735535098,57896.04255319149,279.2717701334691,58066.25454545455,12953.461799447748,59603.307692307695,3157.997561372259,41428.13636363636,12607.59523712683,52276.33566433567,14365.228098950667,22257.3125,4338.932050613808,31857.45,6632.246684256649,36075.61111111111,15165.781383096504,29725.17525773196,8854.75455487145,44558.666666666664,4363.708646960238
1877.5590551181103,39093.666666666664,3441.4580704686273,35655.12244897959,8839.919467341762,46025.90476190476,5361.276446312654,58213.851851851854,6041.8011706327725,28529.290322580644,6462.778999748001,57554.48936170213,247.00735386937373,57672.12727272727,13045.153603826902,59192.53846153846,3337.78036829601,41055.36363636364,12941.937109277567,51596.22377622378,14210.612632482938,22649.4375,4346.822646611402,32408.916666666668,6835.450844169356,37019.52777777778,15213.508084897067,30519.39175257732,9263.846310528184,44973.73333333333,4466.101528427475
1880.708661417323,39576.142857142855,3516.4406555995997,36641.5918367347,9318.671204473107,47290.666666666664,4872.696333197417,57055.333333333336,6044.272581298517,28044.225806451614,6475.143045921108,57008.02127659575,220.68842861833485,56924.05454545454,13029.23577109736,58255.46153846154,3680.7482645492414,40249.954545454544,13100.209743210822,50458.25874125874,13800.419978768601,23082.125,4351.930877136608,32931.4,7081.319331405225,38024.666666666664,15210.45219029774,31302.463917525773,9611.0598727489,45037.86666666667,4561.180941622709
1883.858267716536,39761.857142857145,3618.624696466539,37471.65306122449,9786.252570286004,48365.47619047619,4399.3256476640845,55382.77777777778,5959.531676438101,27413.064516129034,6472.717402797904,56247.89361702128,226.07786589717105,55761.8,12902.218568067346,56744.88461538462,4203.043405831277,39002.5,13084.924353656352,48810.18881118881,13172.284691173714,23548.4375,4356.678766112295,33422.183333333334,7350.855128241129,39027.63888888889,15154.246744638167,32060.659793814433,9908.646522870195,44704.0,4649.83900796576
1887.007874015748,39640.47619047619,3760.3464077895756,38105.5306122449,10222.380682624349,49189.28571428572,3988.374213980967,53247.51851851852,5778.194946715596,26608.8064516129,6430.470711809693,55304.95744680851,277.45890686322645,54174.836363636365,12678.940723984557,54685.53846153846,4901.07479759263,37347.40909090909,12931.084281539619,46657.755244755244,12409.97473905612,24032.625,4363.153287402931,33876.35,7632.37855417082,39975.11111111111,15042.767146775182,32785.18556701031,10182.040232967607,43954.73333333333,4732.523913891567
1890.1574803149608,39246.04761904762,3954.5955482341533,38525.448979591834,10622.023488116132,49734.142857142855,3676.270098446888,50718.7037037037,5499.005013130169,25617.322580645163,6327.741167512977,54254.255319148935,359.8365744946545,52210.89090909091,12396.614417101186,52180.11538461538,5748.100384052799,35364.36363636364,12705.031857659083,44070.08391608392,11634.27878315398,24513.1875,4373.703382414467,34289.566666666666,7925.7005313235395,40832.333333333336,14873.544828916127,33472.21649484536,10464.380847433848,42809.53333333333,4808.720229841708
1893.3070866141727,38653.333333333336,4210.697265337115,38740.04081632653,10996.735192605722,50011.0,3483.806060426824,47873.37037037037,5131.7841107281665,24440.935483870966,6153.760517924524,53209.14893617021,450.1171468663725,49975.8,12114.595738424561,49404.5,6696.047319989492,33171.40909090909,12489.434719208548,41177.503496503494,10979.640959823375,24967.0625,4391.092225585082,34661.183333333334,8243.794855307166,41587.72222222222,14645.151343270029,34122.80412371134,10790.177216510132,41323.53333333333,4876.641109980881
1896.4566929133853,37968.80952380953,4527.910414929119,38782.551020408166,11368.39711757586,50067.47619047619,3417.8502519377885,44790.07407407407,4696.375568030576,23099.612903225807,5907.762409649339,52307.89361702128,530.143787562556,47623.472727272725,11904.562683510043,46588.5,7679.839983559353,30916.68181818182,12358.051528480471,38159.846153846156,10554.739105478779,25374.625,4416.305113935743,34997.55,8612.520661658817,42254.02777777778,14358.18999055187,34743.9587628866,11189.104253616528,39585.86666666667,4934.609256623625
1899.6062992125983,37316.42857142857,4892.034687914131,38707.244897959186,11759.823392625387,49980.09523809524,3469.253685418068,41543.77777777778,4219.874592952605,21630.451612903227,5597.982706001417,51691.68085106383,586.7405133948483,45336.92727272727,11831.489479511934,43986.42307692308,8624.934399630469,28764.136363636364,12347.189788094422,35228.454545454544,10404.363102881658,25727.8125,4449.85868060366,35312.95,9063.253629216166,42864.916666666664,14015.461209311741,35348.14432989691,11680.42561185226,37710.73333333333,4980.428354625288
1902.755905511811,36821.76190476191,5277.068214767614,38581.36734693877,12183.189603969917,49840.42857142857,3612.197267874613,38203.444444444445,3734.100400694809,20086.16129032258,5237.527600030592,51482.44680851064,611.1465265858095,43304.89090909091,11930.947943246705,41843.653846153844,9455.920522013657,26879.272727272728,12443.501791485818,32603.76923076923,10499.81385362291,26036.3125,4489.506803630411,35630.61666666667,9621.497061427373,43468.444444444445,13621.913108918056,35953.73195876289,12268.575867844691,35826.666666666664,5012.800064723197
1905.905511811024,36596.80952380953,5649.071222599741,38476.244897959186,12635.538084099104,49737.90476190476,3805.8208038384705,34832.7037037037,3270.665781297326,18530.225806451614,4842.66468042915,51758.31914893617,599.1114380190327,41696.38181818182,12194.476780293773,40360.807692307695,10105.762221544815,25414.954545454544,12595.634303120025,30490.979020979023,10770.76085674203,26331.5625,4533.275140127031,35981.28333333333,10295.94116807147,44118.944444444445,13182.490664059835,36584.83505154639,12941.094821895358,34062.4,5030.881815348082
1909.055118110236,36726.23809523809,5972.741078510745,38457.204081632655,13100.116371160317,49745.28571428572,4002.5897942737633,31491.296296296296,2856.98199756854,17031.387096774193,4432.716116867482,52538.36170212766,551.59376146056,40638.10909090909,12573.846294696172,39666.53846153846,10523.2641588156,24497.863636363636,12743.945843545598,29057.95104895105,11149.351935965133,26668.875,4577.662283783613,36399.2,11070.799193975714,44867.75,12701.383081676579,37269.12371134021,13669.962604687751,32534.666666666668,5036.403646342189
1912.2047244094488,37257.95238095238,6217.139040979805,38575.30612244898,13552.404037365597,49907.142857142855,4157.914143799855,28236.777777777777,2512.6389599800996,15658.032258064517,4030.958818812147,53775.17021276596,474.66285097050104,40198.145454545454,12998.641754804694,39800.346153846156,10679.242284206914,24217.18181818182,12850.764217234015,28417.46853146853,11594.469613554518,27121.0,4619.489609253386,36918.416666666664,11908.310932974033,45754.805555555555,12182.751839336548,38035.56701030928,14415.467087066349,31336.6,5031.98342339612
1915.3543307086616,38199.52380952381,6359.326002165171,38861.163265306124,13967.638387952695,50233.09523809524,4240.042653702368,25124.555555555555,2246.2831577277516,14469.451612903225,3664.2114131033372,55358.97872340425,378.9116266676204,40378.70909090909,13398.00445747965,40709.53846153846,10569.381752644575,24617.68181818182,12914.51479884821,28616.265734265733,12088.697732446128,27771.25,4655.905960444218,37566.566666666666,12754.795217703639,46801.77777777778,11631.248619585833,38910.22680412371,15132.684430472713,30529.4,5022.993049301715
1918.503937007874,39519.333333333336,6387.270878070012,39321.65306122449,14324.32464134536,50699.0,4235.057136849626,22207.40740740741,2054.7296165145835,13509.451612903225,3358.6669383101084,57133.44680851064,280.81074178631474,41118.94545454546,13715.410035852745,42260.192307692305,10213.585462582632,25695.227272727272,12969.674268468167,29631.95104895105,12621.190752800736,28699.625,4684.082512549816,38360.45,13551.795952843298,48009.416666666664,11056.14170539263,39911.948453608245,15778.58471458328,30137.933333333334,5013.815931559072
1921.6535433070867,41151.80952380953,6301.634410963009,39940.08163265306,14606.351587142279,51255.28571428572,4149.060744460666,19531.777777777777,1925.6978212495937,12801.0,3133.2225500891404,58919.55319148936,204.60473658861184,42305.854545454546,13916.799717565922,44260.53846153846,9653.252187060187,27396.227272727272,13071.432741015522,31377.23776223776,13173.396177090173,29968.5625,4701.576689908796,39301.166666666664,14246.430250144149,49355.77777777778,10473.420629041855,41046.845360824744,16319.112828587504,30151.0,5009.600529649711
1924.8031496063,43006.95238095238,6114.455817986862,40678.87755102041,14804.263202354858,51836.80952380953,4006.2496964599554,17133.51851851852,1845.0781649681537,12342.064516129032,2994.4133674548857,60544.36170212766,179.37781659520905,43792.854545454546,13993.941678023884,46491.42307692308,8945.371261904875,29620.636363636364,13272.42145320156,33710.52447552448,13717.480940038156,31608.25,4706.712314609848,40371.416666666664,14800.34805592047,50799.055555555555,9907.962067461043,42304.16494845361,16735.712578153496,30524.266666666666,5013.8645835545085
1927.952755905512,44980.95238095238,5849.7291062732165,41484.755102040814,14917.776120756222,52377.71428571428,3843.5172897311886,15033.814814814816,1802.139942710847,12104.064516129032,2937.7596679792255,61868.72340425532,202.31150429817328,45419.781818181815,13964.341797711262,48739.53846153846,8155.526192667763,32228.636363636364,13601.922075225097,36451.181818181816,14225.925070827147,33605.75,4698.5379574395265,41534.666666666664,15196.739646677142,52281.583333333336,9391.185948581435,43653.16494845361,17028.03362056527,31188.333333333332,5027.5213066568795
1931.1023622047244,46966.47619047619,5539.958918698015,42294.42857142857,14958.70599964026,52823.76190476191,3703.0959107567064,13235.407407407407,1795.6102080363628,12033.193548387097,2953.7654636331445,62808.85106382979,236.88420537086765,47033.781818181815,13866.551308409757,50825.07692307692,7351.354647133343,35049.545454545456,14058.29719976871,39396.58041958042,14684.790556833901,35898.6875,4678.031513344448,42736.55,15443.563438560199,53735.61111111111,8955.910848514695,45042.39175257732,17215.395953213254,32056.133333333335,5050.07484917028
1934.251968503937,48862.57142857143,5223.280392092863,43041.4693877551,14952.961611096993,53141.52380952381,3618.9017884152386,11721.481481481482,1828.6527194017958,12054.451612903225,3029.184153325028,63347.765957446805,261.4804994776131,48504.89090909091,13753.03089725412,52622.57692307692,6596.08084788044,37892.454545454544,14614.657240179595,42339.13986013986,15100.922527555604,38376.9375,4647.608598364728,43908.61666666667,15572.968249600188,55088.97222222222,8625.91655189983,46401.49484536082,17333.453408195874,33032.6,5078.020779792064
1937.4015748031493,50580.47619047619,4938.458084203318,43661.551020408166,14938.4007655127,53321.90476190476,3607.4635318720616,10456.777777777777,1901.7915789792905,12078.709677419354,3140.972657998386,63534.82978723404,270.90182874031757,49735.4,13678.765309246832,54068.307692307695,5944.50608525495,40559.454545454544,15233.638101037732,45081.0,15501.000166693508,40890.8125,4610.642244020213,44973.15,15637.187174408959,56271.25,8407.533144531093,47646.0618556701,17429.42644975181,34022.2,5106.625711759184
1940.5511811023623,52047.71428571428,4719.577999121946,44097.32653061225,14960.301196612912,53379.28571428572,3663.9450263974463,9393.37037037037,2005.0979499145958,12010.774193548386,3248.3261665810774,63472.44680851064,268.0063359453199,50662.92727272727,13691.298068288148,55155.0,5439.31158681515,42859.09090909091,15881.328625175744,47446.13986013986,15922.189643493643,43266.5625,4571.38909371033,45850.38333333333,15701.638711815685,57218.5,8286.75793895833,48684.989690721646,17554.993445044744,34938.2,5128.992392273554
1943.7007874015749,53209.47619047619,4591.897933358873,44300.67346938775,15063.341051987103,53343.76190476191,3771.8161964100445,8477.222222222223,2117.8548604369807,11758.741935483871,3297.389583054293,63293.0,259.04119445665765,51255.0,13828.393974980347,55917.846153846156,5111.317131863881,44619.0,16535.286587944418,49288.18881118881,16401.7690632721,45327.75,4534.494714132987,46465.15,15834.973743610479,57876.25,8237.278020529597,49429.16494845361,17761.639010629795,35705.4,5138.009975337403
1946.850393700788,54027.71428571428,4571.422787198721,44235.204081632655,15285.882729351732,53252.09523809524,3920.463941262467,7657.111111111111,2214.4507777129706,11243.935483870968,3232.103568840058,63131.234042553195,249.85325163331953,51501.2,14127.057353500442,56412.53846153846,4979.749215424479,45698.045454545456,17185.924331681945,50495.25174825175,16969.85099409531,46915.625,4503.3423819841855,46754.1,16101.253914628305,58202.083333333336,8239.937989838812,49800.9793814433,18096.825057291513,36265.666666666664,5127.005034347268
1950.0,54478.333333333336,4667.991067169538,43876.510204081635,15656.018634198977,53136.04761904762,4121.3260634827175,6892.962962962963,2273.474131864686,10408.806451612903,3014.2895318621704,63095.936170212764,245.09940703725417,51402.4,14636.52367643728,56692.46153846154,5055.358339507537,45996.09090909091,17834.09218554857,50992.0979020979,17649.250046594003,47911.25,4480.82504261213,46671.166666666664,16552.375109700184,58167.666666666664,8303.917214851741,49743.65979381443,18603.17481988235,36579.13333333333,5092.21460488678
