Wavelength (nm),ABS_mean,ABS_std,HDPE_mean,HDPE_std,LDPE_mean,LDPE_std,PA6_mean,PA6_std,PA66_mean,PA66_std,PC_mean,PC_std,PET_mean,PET_std,PMMA_mean,PMMA_std,PP_mean,PP_std,PS_mean,PS_std,PVC_mean,PVC_std
1550.0,59114.0,1519.816831068797,46655.04,15608.773690408865,50746.666666666664,6018.139398703076,129.0,148.30576522846306,371.1,414.59328262768565,64633.21428571428,103.3020388205857,42134.11111111111,19610.459632238464,44592.973913043475,23807.385754794257,44820.88461538462,22445.596063382513,59699.53333333333,3250.869316899028,47300.44285714286,23918.121116267663
1553.1496062992126,59759.6,1532.1782663906963,46131.6,16697.172409722552,50682.933333333334,6366.889355267784,11.9,31.02402294996573,78.85,154.46302955723743,64670.357142857145,99.84531403473014,41306.38888888889,20419.151642348166,44526.10434782608,24236.739611544428,44481.346153846156,22889.315352435828,58958.86666666667,3738.0788981626497,47097.485714285714,24376.592932414755
1556.2992125984251,60649.2,1440.3491798865996,45742.96,18036.905921981186,50816.8,6718.745073300519,588.8,289.9964827372911,873.95,628.6582119880404,64616.642857142855,93.6052556085983,40924.27777777778,20694.220778880797,44719.860869565215,24155.827286468295,44569.5,22868.69375410915,58305.066666666666,4522.625630710058,47271.34285714286,24347.763446646957
1559.4488188976377,61690.2,1263.8391353332906,45508.08,19501.400698247293,51139.666666666664,7103.0805680039675,1814.3,690.1001449065201,2675.45,1226.2047331094427,64519.92857142857,86.2632716792977,41030.944444444445,20529.82557287005,45189.852173913045,23608.348966540914,45082.0,22423.16540647537,57731.86666666667,5644.029563667748,47792.44285714286,23874.55664847036
1562.5984251968505,62766.8,1029.586985154727,45038.82,20798.56500092254,51638.46666666667,7487.152737560224,3617.9,1164.985617936977,5364.1,1878.5899738899918,64438.142857142855,79.64730929259959,41668.38888888889,20022.563228459396,45950.65217391304,22655.611331812426,46004.88461538462,21606.281569393588,57233.8,6979.457287401841,48618.7,23010.30890855537
1565.748031496063,63759.6,767.1191823960603,45593.32,22110.428581499727,52295.73333333333,7778.8173776966605,5909.0,1648.5372910553162,8786.2,2509.933517047812,64422.78571428572,74.32859339391786,42854.0,19248.03445087893,47006.80869565217,21371.324305529088,47306.03846153846,20482.564079425003,56807.86666666667,8345.934154757966,49696.87142857143,21811.98713415658
1568.8976377952756,64569.0,505.454646827982,45956.4,22906.671171516824,53090.13333333333,7865.866774587244,8578.2,2079.42135220354,12759.5,3041.4166847046786,64506.857142857145,69.9334961055932,44560.77777777778,18252.17805436916,48344.64347826087,19836.076032097506,48929.42307692308,19122.928728810337,56456.26666666667,9572.112044661593,50965.81428571429,20336.991745018215
1572.0472440944882,65131.8,268.52441229802554,46547.64,23196.757924985985,53996.666666666664,7660.22210005834,11501.6,2410.7933631898027,17081.7,3416.696988320738,64694.357142857145,63.92362311256093,46705.77777777778,17059.723615566174,49925.64347826087,18134.429710020522,50791.57692307692,17601.227780979625,56187.13333333333,10534.883070806032,52359.171428571426,18644.378191348747
1575.1968503937007,65427.8,80.90092706514555,47361.12,22939.769070014634,54987.0,7126.267035879771,14547.8,2617.4709855125425,21541.65,3615.3390335485824,64956.57142857143,54.68835640728849,49146.444444444445,15694.13106943775,51683.58260869565,16351.563450302321,52785.0,15991.975745065687,56010.933333333334,11169.32920377147,53808.28571428572,16799.918917442817
1578.3464566929133,65483.4,103.2,47845.7,22057.955679527513,56030.6,6292.1001242298535,17584.3,2697.3822142959275,25931.55,3661.856516509078,65236.07142857143,41.028673398201974,51693.38888888889,14198.771766674003,53525.965217391305,14570.948014832942,54785.07692307692,14368.51560751192,55938.13333333333,11472.202937922992,55245.485714285714,14879.464363192319
1581.496062992126,65355.6,203.79950932227487,49545.64,21001.533160948038,57095.4,5240.65995589614,20488.8,2670.0219025318875,30061.4,3621.598713275672,65455.57142857143,22.509408463745896,54132.0,12646.248266668745,55341.04347826087,12870.34587649914,56663.730769230766,12798.752717347987,55972.933333333334,11493.968908180595,56607.328571428574,12969.797627809254
1584.645669291339,65121.2,271.7067536886045,50819.56,19582.28369129607,58149.0,4094.636296424873,23156.5,2568.197237363205,33773.5,3582.461102370827,65535.0,0.0,56252.72222222222,11131.988665331173,57007.99130434782,11316.249475092582,58302.769230769234,11342.03162274559,56106.4,11322.342106354732,57837.25714285715,11163.77022039945
1587.7952755905512,64849.6,312.5012639974437,52128.0,18091.35174828017,59160.26666666667,2990.6080645172406,25510.3,2434.050576713639,36953.4,3618.860544425552,65401.92857142857,25.206190525669015,57883.055555555555,9753.646545849302,58410.36521739131,9956.711268049901,59610.92307692308,10044.178282900908,56311.73333333333,11060.12139455179,58889.328571428574,9549.388730955397
1590.9448818897638,64585.0,338.1756939816935,53397.08,16696.442835334718,60100.066666666666,2058.3464712131326,27507.9,2306.8978499274735,39540.05,3752.293851432747,65012.5,51.458374301121154,58916.0,8582.836587567592,59450.29565217391,8816.384037415708,60534.346153846156,8933.544924532425,56539.53333333333,10803.774061975853,59730.47142857143,8196.759028022561
1594.0944881889764,64331.6,358.597601776699,54554.88,15530.794736445396,60943.46666666667,1398.3914028466977,29145.2,2220.839066659266,41529.0,3945.9087419756684,64352.857142857145,77.05365212708901,59326.61111111111,7644.822272034037,60060.31304347826,7894.316864313067,61064.03846153846,8020.172031920365,56719.13333333333,10622.333283333855,60342.4,7145.714648654815
1597.244094488189,64045.8,384.405202878421,55539.16,14677.817131113194,61672.0,1052.149102234723,30457.1,2197.8282212220315,42970.6,4136.1180519902955,63444.57142857143,100.49357782303042,59176.22222222222,6923.488030333614,60213.11304347826,7169.246273845474,61235.61538461538,7300.294536086162,56761.73333333333,10546.211676658539,60723.514285714286,6400.464558458366
1600.3937007874017,63640.6,421.65417109285187,56304.64,14163.72276735181,62273.066666666666,955.5607405544081,31512.8,2245.4244498535236,43962.85,4265.799705506577,62336.357142857145,120.66281658457362,58599.0,6386.689344079433,59925.026086956525,6610.509842155333,61121.57692307692,6760.467178742315,56569.4,10561.211141404821,60888.68571428571,5936.000013339566
1603.5433070866145,62998.8,474.2072964432327,56828.08,13959.85929705597,62742.73333333333,995.3426523341374,32407.6,2354.5193224945087,44639.3,4300.146312627048,61091.92857142857,137.35639996827558,57774.944444444445,6019.47035758151,59253.8,6187.347321190516,60817.57692307692,6382.409028988475,56047.13333333333,10615.048198142526,60867.828571428574,5710.657155007716
1606.6929133858268,61995.4,540.5114614880983,57111.84,13994.230881845562,63086.86666666667,1100.2474186391996,33251.4,2501.7726995072912,45151.95,4226.157030624867,59772.642857142855,150.31614642995282,56894.055555555555,5827.7383117507015,58290.89565217392,5874.53332003845,60425.346153846156,6143.8475788780115,55114.933333333334,10626.759239245466,60703.671428571426,5675.250589109142
1609.8425196850394,60521.6,614.583631412357,57183.44,14168.359103523599,63319.066666666666,1214.3222233913953,34153.8,2657.9876147190757,45653.0,4045.8759990884546,58421.357142857145,160.30667357236484,56116.11111111111,5818.554353568598,57148.2347826087,5651.797521420773,60035.730769230766,6015.890940844105,53722.333333333336,10505.186164726238,60447.1,5773.873401922541
1612.992125984252,58509.0,689.8388217547632,57092.16,14381.276014818714,63461.4,1271.6152877344625,35210.4,2796.9253189886927,46278.3,3771.4171089923216,57048.857142857145,167.63645066582842,55535.38888888889,5970.924487686502,55463.53913043478,7559.830819693114,59713.0,5963.7089775768545,51857.73333333333,10166.484187214815,60151.95714285714,5946.994898832071
1616.1417322834643,55945.8,759.7384813210398,56902.2,14551.275298062366,63542.73333333333,1220.5176206111169,36490.2,2902.621360081263,47129.9,3424.05750389797,55625.642857142855,173.34589992384636,55156.5,6229.079459813196,54307.2,7417.795057597758,59485.96153846154,5949.716854806358,49554.26666666667,9552.999860195167,59868.18571428571,6137.657832228039
1619.291338582677,52887.4,821.4629876019977,56684.12,14631.28936306025,63594.13333333333,1045.7543922398265,38025.3,2976.380992077459,48268.1,3039.0759763454416,54084.71428571428,178.08402052780295,54887.055555555555,6517.0465914163415,53266.27826086956,7314.527779400007,59346.07692307692,5940.962049281742,46889.26666666667,8646.649944471108,59636.31428571429,6302.247144682051
1622.4409448818897,49450.2,874.5118409718648,56504.48,14614.197365904158,63647.13333333333,781.357098614683,39807.7,3034.8231925435125,49703.6,2675.479590652861,52330.07142857143,182.00332190285283,54547.5,6755.52347054698,52377.086956521736,7244.1213258574635,59253.42307692308,5916.552765648104,43977.333333333336,7476.974795255692,59482.21428571428,6415.550565156636
1625.5905511811025,45798.2,920.4677941134063,56416.12,14527.607228501189,63728.2,528.4951213902863,41789.9,3105.2707595312845,51401.1,2421.051566984892,50254.57142857143,185.1878252268353,53899.833333333336,6870.146183549033,51630.28695652174,7198.154770513389,59148.269230769234,5873.342244397349,40956.8,6123.842586698866,59412.9,6472.103520163619
1628.740157480315,42119.0,962.735893171123,56450.28,14421.319527754731,63855.46666666667,467.094403972283,43891.2,3215.415239125423,53285.15,2365.7899161802175,47759.357142857145,187.11936875498833,52687.055555555555,6797.961095245333,50971.62608695652,7165.424734473626,58966.61538461538,5828.107741975178,37971.73333333333,4719.733812644758,59415.92857142857,6481.35135010203
1631.8897637795276,38593.6,1002.3050633414957,56610.84,14348.538009651018,64034.6,582.3036779321708,46010.5,3380.70673824276,55252.0,2534.6086482926708,44775.21428571428,187.55348896911994,50681.27777777778,6498.000861851073,50308.11304347826,7132.611653848291,58656.96153846154,5817.067193121456,35153.066666666666,3465.7225406672255,59460.58571428571,6460.905068161574
1635.03937007874,35370.4,1037.678485851952,56873.92,14351.297608007439,64257.46666666667,657.7714766965466,48040.3,3599.9421953692536,57184.05,2860.295342705015,41278.857142857145,185.56818428924763,47727.833333333336,5972.819613791203,49520.77391304348,7088.498168111455,58193.57692307692,5888.436779453551,32600.266666666666,2661.6351983111604,59502.47142857143,6430.080565417131
1638.1889763779527,32540.6,1066.4759912909433,57191.36,14447.871602087278,64502.2,596.4150903523484,49880.0,3856.613851554236,58965.3,3246.655588447903,37302.57142857143,180.44299229781066,43780.444444444445,5308.984828908466,48481.026086956525,7030.7587387705,57583.192307692305,6090.201304107789,30367.266666666666,2559.30994519139,59489.514285714286,6405.46259898056
1641.3385826771653,30127.0,1084.6883423361753,57497.88,14628.441145439934,64734.13333333333,413.33245161196277,51452.2,4128.034466910372,60494.0,3621.4033191568155,32935.857142857145,171.31377108471256,38921.77777777778,4736.437275181463,47069.086956521736,6974.002291199506,56865.692307692305,6452.5589483745525,28455.266666666666,2944.8277474620177,59369.81428571429,6398.2028532412505
1644.4881889763778,28081.6,1087.8591085246287,57721.12,14856.996970639791,64911.26666666667,348.883068599718,52710.4,4390.774583145894,61694.7,3945.0331316732945,28316.5,158.58470021681518,33362.38888888889,4634.221139629361,45191.75652173913,6956.008040087492,56106.03846153846,6978.995125378666,26813.066666666666,3408.4085135962728,59098.614285714284,6412.353203650539
1647.6377952755906,26298.0,1073.610357625149,57794.6,15076.92373927785,64989.2,681.6757978198531,53643.4,4625.208410439469,62523.6,4203.910053747582,23615.428571428572,141.9908016566638,27422.38888888889,5261.984143509291,42797.556521739134,7038.310093853501,55380.807692307695,7646.297520415358,25347.066666666666,3742.3539021435276,58645.828571428574,6444.049729282772
1650.7874015748032,24632.4,1040.290074931026,57667.52,15221.42958100848,64928.8,1131.5201102941123,54272.4,4815.877328171888,62969.3,4400.607459203786,19016.85714285714,122.02333333240418,21494.5,6458.281971838778,39886.330434782605,7294.472534760693,54760.307692307695,8412.852323262172,23936.6,3893.9624172129174,57998.58571428571,6481.538903450228
1653.9370078740158,22931.4,987.6674744062395,57315.48,15227.675867629967,64700.53333333333,1550.4373089192898,54643.5,4953.585817365033,63050.85,4544.431408603281,14696.714285714286,99.97101620786223,15996.833333333334,7867.021653360593,36513.556521739134,7785.602717381117,54290.769230769234,9228.837664573652,22454.533333333333,3877.935616908678,57162.9,6507.077731538614
1657.0866141732283,21063.2,917.0281129823667,56743.88,15049.439737930448,64291.933333333334,1876.3214176207184,54814.6,5035.132435199694,62808.85,4643.296687430171,10805.92857142857,77.17833179046553,11322.666666666666,9197.722556275668,32786.71304347826,8533.781572453772,53980.42307692308,10037.599257764152,20790.866666666665,3735.059318880432,56160.65714285714,6500.265937165766
1660.236220472441,18940.8,830.3118450317327,55987.84,14668.02695301587,63706.933333333334,2083.504594560702,54839.4,5062.432324485928,62297.85,4700.396603213393,7456.642857142857,55.47149479411815,7791.777777777777,10262.584884237149,28856.408695652175,9512.063070599082,53792.269230769234,10778.790896791046,18870.733333333334,3509.3939356469455,55023.54285714286,6441.086229790116
1663.3858267716537,16540.4,730.7419790870099,55105.24,14097.986867010482,62965.333333333336,2176.772861115484,54754.8,5041.925977243221,61575.35,4713.429274689502,4717.428571428572,35.99744888920063,5614.722222222223,10961.482177787393,24901.217391304348,10655.672879642956,53643.692307692305,11387.690884220394,16670.0,3234.7197714794397,53785.72857142857,6311.604459636072
1666.5354330708662,13905.6,622.2464463538543,54166.2,13381.959653204758,62097.86666666667,2184.140833880046,54566.7,4982.4828760368055,60692.5,4677.998252457989,2616.8571428571427,20.753165482668432,4870.777777777777,11275.156700342746,21109.321739130435,11881.265741053323,53415.88461538462,11799.839722923629,14221.466666666667,2930.3238471010145,52474.642857142855,6097.18903625905
1669.6850393700788,11142.6,510.07630801675157,53238.16,12581.742247177055,61136.2,2149.179508556696,54246.2,4891.613328953956,59688.35,4592.907644129152,1149.642857142857,10.437618385006246,5503.166666666667,11259.419336962079,17659.31304347826,13103.230481443492,52970.07692307692,11956.096149995157,11612.266666666666,2601.6518974596806,51103.614285714284,5787.35358788665
1672.8346456692914,8400.4,399.71669967615816,52371.0,11762.754861000887,60103.333333333336,2126.1817942551907,53730.5,4774.442485777789,58585.15,4466.731403106751,289.07142857142856,4.891162375934283,7334.555555555556,11036.52640715377,14701.234782608695,14244.937760988721,52167.5,11813.96917684901,8971.733333333334,2247.308834040296,49666.65714285714,5382.340181120673
1675.984251968504,5847.8,297.55093681586686,51582.08,10977.899219504614,59003.333333333336,2178.8948778885338,52930.2,4634.2220663235385,57388.6,4322.727951190081,0.0,0.0,10091.722222222223,10770.634489747037,12341.93043478261,15244.956886286227,50890.92307692308,11357.833328463656,6454.0,1865.9633079636553,48137.04285714286,4906.203986312242
1679.1338582677165,3644.8,208.6714163463698,50849.08,10255.8765278059,57811.46666666667,2369.8400189792465,51746.1,4474.0505238541955,56091.85,4199.5953052050145,243.42857142857142,8.095098038004108,13442.611111111111,10623.473956494692,10634.852173913043,16061.568135712883,49063.53846153846,10613.084928994926,4214.2,1463.0805947269846,46470.22857142857,4432.639894404844
1682.283464566929,1916.6,136.00823504479425,50105.32,9596.304896031597,56471.53333333333,2724.7034790760054,50086.1,4298.142260325965,54679.55,4147.394935076716,988.2142857142857,19.950576688509074,17036.61111111111,10690.704680748957,9580.35652173913,16671.759570781236,46661.5,9660.501895107966,2387.8,1052.6908504716218,44611.24285714285,4117.629055782029
1685.433070866142,736.4,80.6091806185871,49246.52,8972.441113186533,54896.2,3209.0676153674294,47886.5,4114.918595792631,53137.55,4214.106435236301,2203.9285714285716,34.95193492643921,20542.11111111111,10960.378500605862,9110.060869565217,17081.377284499787,43719.46153846154,8655.286073709607,1070.0,659.1603750226495,42504.97142857143,4188.680330780733
1688.5826771653544,113.8,37.48813145516858,48142.96,8340.41628447885,52977.4,3741.9708675153165,45128.3,3935.621756469999,51459.25,4425.322382324252,3858.5,51.5,23678.88888888889,11325.246467216944,9135.965217391304,17300.39301284194,40325.769230769234,7840.202687272491,303.73333333333335,318.28361915471277,40108.58571428571,4799.855311786141
1691.732283464567,0.0,0.0,46658.36,7654.738678126119,50598.4,4225.859309852455,41851.1,3771.4468960864347,49651.15,4774.314110686477,5910.857142857143,68.8163779746582,26239.88888888889,11640.437663062945,9525.739130434782,17359.786644695214,36613.07692307692,7509.13512854165,76.26666666666667,151.34528587159747,37403.02857142857,5900.61068261202
1694.8818897637796,294.0,40.48209480745778,44673.88,6891.0827150455825,47655.933333333334,4569.95195403871,38155.2,3633.4098254945034,47739.45,5225.929950496849,8301.07142857143,85.18086998995078,28103.5,11780.292791352853,10135.226086956522,17298.802235018356,32740.53846153846,7853.198320678354,323.0,297.2798905633096,34403.62857142857,7330.214362820364
1698.031496062992,870.8,91.99434765245091,42110.08,6084.422029543974,44080.0,4708.0314215887165,34197.5,3529.754474464194,45770.5,5732.964289963788,10947.57142857143,99.8296508241588,29233.944444444445,11671.305737064073,10826.339130434782,17159.92780206103,28875.69230769231,8810.172410646992,943.0666666666667,477.8477395805303,31163.757142857143,8939.748650087131
1701.181102362205,1596.6,164.12751140500487,38947.52,5390.495866764022,39855.066666666666,4609.390190566306,30177.4,3465.5978474139206,43809.75,6248.612084895332,13745.5,112.0017538127991,29676.277777777777,11304.772550690239,11484.452173913043,16984.87410929449,25176.30769230769,10144.681413541211,1816.1333333333334,683.3288975465783,27776.085714285713,10618.229548070158
1704.3307086614172,2355.6,270.16853998939257,35238.96,5134.51592639462,35035.46666666667,4285.074497472464,26316.1,3443.625166884456,41936.95,6732.974932932694,16573.071428571428,121.92706501705626,29539.88888888889,10736.01032811687,12031.208695652174,16810.270479419087,21776.076923076922,11625.184451549334,2823.5333333333333,959.7662817350667,24365.64285714286,12285.061412760871
1707.48031496063,3065.8,422.3824806972941,31111.76,5659.411801804142,29751.133333333335,3784.4093483072834,22830.0,3460.028699302941,40239.4,7157.258290714399,19302.928571428572,129.03015388755023,28982.88888888889,10074.795315753117,12433.052173913044,16665.279422822652,18775.115384615383,13094.299817762521,3868.133333333333,1316.8963951486676,21078.3,13880.875454431129
1710.6299212598426,3688.8,629.8035884305519,26760.92,6969.166824922475,24205.2,3185.6529461530076,19906.8,3504.6554695147993,38803.85,7504.520013132085,21818.071428571428,133.78846004351917,28192.166666666668,9464.221264260937,12702.35652173913,16569.18562360305,16237.307692307691,14464.10593575386,4887.466666666666,1726.4923541356586,18066.02857142857,15362.896601851608
1713.7795275590552,4230.0,894.3522795856228,22429.4,8775.473211172148,18658.466666666667,2577.0930100060846,17681.5,3561.3331843566675,37706.4,7771.672949886659,24026.35714285714,136.53445778727547,27364.055555555555,9040.896326460252,12892.669565217391,16531.323823852515,14192.307692307691,15697.234427584886,5860.933333333333,2143.174575768904,15469.314285714287,16702.81450752097
1716.9291338582675,4729.6,1210.5824383328877,18382.56,10785.874933745523,13404.866666666667,2031.658234601042,16222.6,3612.519846312266,37004.45,7969.6623609472945,25876.35714285714,138.1560231574935,26687.055555555555,8882.715215969984,13088.295652173912,16551.263721606127,12642.576923076924,16789.438986304816,6808.466666666666,2523.0579030656872,13400.714285714286,17885.891615734337
1720.0787401574803,5249.4,1565.2283667248048,14875.04,12790.10546470982,8739.066666666668,1578.495928267018,15524.3,3645.137282737099,36729.45,8120.786331846196,27363.928571428572,138.55193161808333,26326.277777777777,8973.776312775375,13389.704347826088,16621.135734738156,11571.5,17756.45746731204,7779.4,2835.3114537912766,11931.685714285713,18910.75794321684
1723.2283464566929,5852.2,1936.981094383732,12119.52,14647.019850112854,4921.533333333334,1193.2904573302994,15511.5,3655.2248426054452,36882.8,8253.826231512267,28534.5,138.24654477728237,26409.666666666668,9222.311309475997,13897.626086956521,16727.31244686282,10951.538461538461,18622.265108922227,8838.133333333333,3070.5490033904725,11084.485714285714,19787.985333633173
1726.3779527559054,6585.8,2301.838343585405,10259.88,16271.652396287232,2146.0,824.7768182969257,16053.3,3647.1175481467553,37434.25,8397.462800602334,29474.071428571428,137.45205100881768,27019.11111111111,9513.20422645919,14696.64347826087,16853.578229893883,10750.615384615385,19410.48717550728,10045.533333333333,3243.1558060355687,10830.185714285713,20538.51849316503
1729.5275590551182,7469.4,2633.449950160435,9351.6,17628.17926843269,513.6666666666666,438.79982781319427,16982.0,3632.06998831245,38323.75,8572.701965395741,30297.14285714286,136.55551311926334,28184.055555555555,9753.091296109502,15842.44347826087,16983.095187346076,10933.961538461539,20137.153582907333,11440.666666666666,3388.0934002605195,11093.5,21189.532698784493
1732.6771653543308,8488.6,2906.8228428990988,9356.16,18723.211749440852,20.066666666666666,51.65328859058467,18120.9,3619.878214802261,39467.65,8788.679492819158,31124.785714285714,135.70881567923738,29879.555555555555,9888.68874703833,17353.2,17099.884689771403,11464.846153846154,20806.99468317234,13028.6,3548.9774264333287,11762.257142857143,21769.54180086462
1735.8267716535431,9594.0,3104.2508274944535,10145.4,19596.472221295342,552.9333333333333,339.55961021430227,19305.8,3614.2450885350872,40766.4,9044.14992356938,32066.214285714286,135.14287601932818,32030.277777777777,9903.233421495088,19206.591304347825,17189.833791287758,12302.346153846154,21412.410660718575,14775.0,3760.2246564090647,12705.0,22302.519977411906
1738.976377952756,10714.2,3214.1270914511147,11523.24,20304.65663492983,1911.6,644.5094051550631,20409.1,3610.6943778170976,42114.1,9330.736749581996,33199.357142857145,134.73392145943328,34517.944444444445,9806.586995326845,21342.4,17240.56493768214,13397.615384615385,21936.45897214695,16606.133333333335,4032.44592221093,13784.471428571429,22803.16831853568
1742.1259842519685,11768.0,3235.8389947585465,13252.0,20906.150846102686,3831.4,844.8338534883649,21352.2,3600.3328401690865,43409.95,9636.97650445927,34559.5,134.93583131039944,37195.5,9623.228940953239,23671.41739130435,17241.024868146484,14691.73076923077,22356.786850387707,18420.866666666665,4350.261982404687,14876.028571428571,23274.052595707413
1745.275590551181,12681.4,3177.5575903514323,15085.24,21443.315953051664,6020.933333333333,934.1769615846644,22112.3,3576.0416678221186,44567.85,9952.106245790384,36134.857142857145,135.58279344205522,39903.27777777778,9381.160854520887,26087.008695652174,17181.597693839998,16114.807692307691,22651.5145783629,20107.066666666666,4682.537979439024,15880.5,23704.348596075906
1748.4251968503936,13404.8,3056.323242067174,16803.0,21931.356512537022,8202.666666666666,947.6481531782891,22719.0,3537.3872844233497,45524.5,10263.942661083021,37872.0,136.686293596479,42489.22222222222,9106.113725011317,28478.930434782607,17052.759606188814,17590.80769230769,22804.52044091129,21559.866666666665,4994.043530269057,16733.32857142857,24072.409858425908
1751.5748031496064,13922.4,2894.3846738123807,18240.2,22354.986980090147,10149.133333333333,955.1467507956856,23242.9,3490.5708831078045,46245.05,10559.45536225709,39688.07142857143,138.54110492955527,44826.88888888889,8815.782929174298,30747.61739130435,16847.009423469797,19042.576923076922,22808.108978325225,22701.866666666665,5254.48200893506,17408.185714285715,24349.27222983581
1754.724409448819,14258.8,2717.2397317866526,19304.84,22676.39063815933,11711.933333333332,1021.5185080174624,23778.2,3443.6958576506145,46724.85,10824.215561762434,41487.5,141.0429265963279,46830.833333333336,8519.61502292732,32815.252173913046,16559.904097518716,20400.5,22666.523457173917,23497.4,5441.839465964917,17914.757142857143,24504.690879465572
1757.8740157480315,14473.2,2547.2174151414715,19986.52,22849.377481445747,12836.266666666666,1146.9184491012818,24422.9,3401.5638006658055,46987.5,11044.114588775326,43182.07142857143,143.9530996469308,48466.27777777778,8221.880244577444,34633.139130434785,16191.818916481276,21611.423076923078,22395.66557510125,23960.866666666665,5545.282930763968,18291.5,24513.08687138945
1761.023622047244,14652.4,2404.3778072507657,20348.88,22834.337794330713,13561.4,1280.5849600866004,25260.4,3362.5377975570773,47079.3,11207.423941745043,44706.857142857145,147.15776623496737,49751.5,7922.470653148549,36185.09565217391,15749.66019839043,22646.423076923078,22021.27438877281,24155.533333333333,5564.282198291369,18595.3,24358.67412316548
1764.1732283464569,14892.8,2300.042034398502,20511.72,22612.426649999332,14004.733333333334,1383.864900278283,26343.7,3318.8135244391183,47060.7,11308.802563047955,46031.42857142857,150.59772066464936,50750.88888888889,7619.258617250316,37485.31304347826,15246.642119476508,23505.076923076922,21576.51348096079,24183.666666666668,5510.235949777671,18889.442857142858,24040.126110101668
1767.3228346456692,15284.0,2239.261931976695,20626.28,22192.133198086205,14334.2,1465.680374433662,27688.0,3260.715044280932,46997.0,11349.381410455815,47162.5,153.97622729313954,51561.166666666664,7308.478183665265,38572.034782608695,14700.32082757287,24214.30769230769,21097.10779261029,24170.4,5405.014817124309,19232.128571428573,23571.083799508866
1770.4724409448818,15891.4,2217.6642306715416,20842.6,21609.212685334,14734.333333333334,1579.5900593367749,29267.3,3183.0093323771453,46947.7,11334.868045548656,48139.357142857145,157.02393227187517,52292.11111111111,6984.723711141884,39499.330434782605,14129.987248046025,24823.846153846152,20616.684924692032,24242.266666666666,5279.384111386058,19666.52857142857,22978.178586725917
1773.6220472440946,16745.8,2226.3696368752426,21281.72,20921.096765743427,15368.0,1781.913952280899,31021.4,3085.6313195195567,46956.65,11274.619298561704,49022.357142857145,160.60270729921314,53043.88888888889,6642.68146064933,40326.8,13552.240877562585,25395.80769230769,20161.592845765,24505.8,5168.420767184757,20215.85714285714,22296.82182495697
1776.7716535433071,17837.4,2251.81727500257,22012.56,20197.171210008593,16345.8,2076.3856160806613,32866.3,2974.61802757934,47046.55,11177.582267534424,49876.57142857143,163.87569953461428,53888.444444444445,6280.7110728202515,41110.495652173915,12978.58527385981,25991.884615384617,19747.699763471817,25030.0,5104.835302599553,20880.071428571428,21564.610112285776
1779.9212598425197,19116.4,2279.8796108566785,23039.04,19505.677845140377,17705.533333333333,2411.4117266770427,34708.6,2856.084004366818,47215.2,11052.25501243977,50755.5,167.34043572481644,54854.11111111111,5905.136463649336,41896.078260869566,12413.346289656094,26660.23076923077,19378.800282996985,25832.933333333334,5112.032243855883,21639.214285714286,20814.474318122855
1783.0708661417325,20504.8,2297.4384344308337,24299.16,18902.436993530755,19403.933333333334,2719.787258020173,36460.5,2733.791771514429,47436.1,10905.728815168659,51687.857142857145,170.9849020665096,55919.27777777778,5533.050382379562,42714.51304347826,11852.877351908908,27424.46153846154,19047.9199999749,26881.533333333333,5196.471762862012,22457.442857142858,20069.51351224447
1786.2204724409448,21909.6,2296.6793942559766,25676.16,18419.435725732747,21323.866666666665,2951.2002499924597,38052.4,2606.04444321274,47663.1,10744.473416133524,52670.28571428572,174.93893978488958,57017.77777777778,5188.427063673703,43581.4,11286.198457138391,28276.576923076922,18739.822011249562,28096.133333333335,5344.568381284144,23290.3,19339.35730971578
1789.3700787401574,23238.2,2274.009006138718,27018.56,18058.81186364153,23295.6,3084.429235153024,39440.7,2468.8724572160468,47837.35,10575.969569145895,53666.57142857143,178.69715573950177,58049.22222222222,4890.113524648545,44499.10434782608,10695.602111533599,29176.19230769231,18435.23403915454,29365.333333333332,5526.497995013559,24092.27142857143,18619.458679350504
1792.5196850393702,24418.2,2232.345260034836,28167.6,17793.214891075757,25126.666666666668,3128.364102139576,40613.9,2317.9623141889087,47897.15,10407.40408207061,54615.71428571428,182.61842676991378,58901.0,4637.7380142574775,45460.98260869565,10059.460312243922,30056.03846153846,18113.69866338047,30565.8,5701.825639798771,24823.47142857143,17893.292472497244
1795.6692913385828,25405.4,2177.896655032098,28984.68,17571.883256429857,26636.333333333332,3116.492144846332,41586.8,2153.9698140874675,47787.45,10244.997610907481,55445.857142857145,186.41078185511893,59471.27777777778,4405.29139918444,46456.0,9356.84583421237,30833.26923076923,17758.166014449394,31584.933333333334,5829.275740795097,25454.714285714286,17135.932935662127
1798.818897637795,26193.2,2120.397736274966,29374.6,17332.749942233637,27686.733333333334,3095.731156860291,42396.3,1983.6049026960989,47468.8,10091.105755069659,56089.5,189.9908832399221,59689.944444444445,4151.879580680193,47472.852173913045,8576.212891017834,31423.19230769231,17356.671630194607,32339.133333333335,5875.004486428547,25969.871428571427,16320.446798787127
1801.968503937008,26810.6,2070.150004226747,29303.24,17017.78038001431,28207.466666666667,3115.918545505037,43091.8,1821.4322276714001,46922.9,9944.944182347128,56498.857142857145,193.76342613125536,59536.833333333336,3842.821854517271,48502.81739130435,7726.78993427369,31756.423076923078,16904.241270651295,32788.53333333333,5821.879901047618,26366.071428571428,15424.133610603712
1805.1181102362204,27314.6,2035.7777481837254,28802.16,16584.842399444136,28207.0,3221.023750300516,43724.3,1687.467632282172,46155.65,9800.70244051415,56658.357142857145,197.00493363758943,59047.166666666664,3476.8031492865525,49539.70434782609,6853.9276711448765,31791.5,16403.957302220613,32942.8,5673.792584623916,26651.514285714286,14434.94515081158
1808.267716535433,27778.2,2022.6868665218549,27963.92,16016.882355614653,27771.666666666668,3440.85758044254,44338.4,1601.449980486434,45196.45,9650.357410350147,56589.142857142855,200.11634371137248,58310.055555555555,3103.4954034339735,50578.2,6055.747717736396,31524.653846153848,15866.318253414654,32858.666666666664,5458.962644638224,26842.257142857143,13357.104983261812
1811.4173228346456,28274.4,2032.5220392409033,26925.6,15324.182186335427,27050.2,3786.7040937117513,44965.7,1573.4915983252024,44094.1,9485.372912542764,56346.0,202.53394777172542,57453.833333333336,2829.6125421846873,51611.04347826087,5490.208340691326,30993.346153846152,15306.14747776026,32628.0,5225.013020717429,26957.885714285716,12212.691781845939
1814.5669291338584,28862.8,2061.7126278897354,25848.12,14539.802274639089,26228.266666666666,4245.226000527599,45623.4,1597.8131430176684,42908.2,9299.728160543189,56009.57142857143,204.19588434557997,56624.444444444445,2780.098923544153,52624.7652173913,5329.279873581801,30271.5,14739.862052506565,32360.466666666667,5028.798887297929,27017.742857142857,11040.037425772114
1817.716535433071,29576.4,2103.205515397865,24889.68,13711.546870342529,25498.8,4780.356907177538,46314.6,1652.8369671567732,41702.85,9091.574408621424,55669.42857142857,204.53421449224373,55960.77777777778,2997.059217068839,53597.739130434784,5639.386207869815,29459.23076923077,14180.213140710415,32163.933333333334,4918.071281395674,27038.32857142857,9887.521890488939
1820.8661417322835,30416.8,2145.015188757413,24182.32,12890.59036885433,25030.133333333335,5340.051246528965,47035.0,1711.9112126509365,40535.6,8864.180466348822,55409.78571428572,202.9687444521688,55569.72222222222,3399.4157799630407,54498.556521739134,6314.188233399863,28669.76923076923,13633.38239341973,32124.8,4912.494114669927,27031.914285714287,8805.566549052703
1824.015748031496,31355.0,2176.9250790966603,23814.12,12119.631695130012,24941.533333333333,5869.278284612362,47777.9,1750.4696198449146,39451.9,8625.717621740234,55294.142857142855,200.0235190253019,55508.166666666664,3870.2939918478205,55288.40869565217,7167.237800236697,28010.76923076923,13096.212195509908,32293.066666666666,5000.581705717402,27006.27142857143,7835.839881907871
1827.1653543307089,32336.8,2188.551520983685,23819.56,11423.790558584307,25288.733333333334,6321.039202184681,48541.9,1753.9482004893987,38480.15,8386.724016414275,55354.28571428572,194.75458130368978,55773.833333333336,4330.71750855316,55925.40869565217,8038.311249094283,27570.153846153848,12557.891174300012,32674.8,5147.256074194612,26966.071428571428,7002.495162076012
1830.3149606299207,33295.6,2172.246910459306,24179.84,10805.531793225173,26058.933333333334,6665.475381562986,49333.3,1716.9131632089027,37629.3,8157.429516091451,55587.642857142855,188.0218859384107,56309.0,4751.191932323696,56371.47826086957,8825.173246086473,27404.23076923077,12003.383123448322,33233.73333333333,5313.871839712441,26915.128571428573,6309.335083648283
1833.464566929134,34165.6,2125.6860163250826,24832.24,10244.753062050837,27180.8,6892.831060360225,50171.7,1643.2742345695074,36892.2,7944.971954638983,55961.142857142855,180.18556194849208,57011.22222222222,5137.354329435808,56599.94782608696,9478.06056371512,27531.384615384617,11417.52594471433,33898.46666666667,5468.072772823062,26857.985714285714,5743.086523297524
1836.6141732283463,34897.0,2050.516715367129,25686.36,9704.841867356727,28542.666666666668,7014.094302822632,51084.0,1543.5334139564327,36248.15,7752.886586781726,56419.42857142857,171.7014494845691,57757.27777777778,5509.953506615253,56602.45217391304,9988.712372293454,27933.19230769231,10790.759715249364,34579.8,5587.490733176506,26802.685714285715,5283.097499283805
1839.763779527559,35464.6,1952.3717473882887,26644.08,9144.74350835495,30016.0,7056.520823559818,52104.1,1430.4774342854905,35671.05,7582.617585471392,56900.07142857143,163.34821013743016,58426.444444444445,5890.880685170391,56394.17391304348,10380.555590610467,28559.923076923078,10121.714824775634,35187.333333333336,5659.115934097441,26760.914285714287,4912.734922751735
1842.913385826772,35876.2,1840.851911480117,27619.0,8533.945244727083,31482.266666666666,7056.501932890608,53261.8,1312.3019317215076,35135.05,7435.476585095268,57345.57142857143,155.76892881339805,58925.72222222222,6294.3758476697585,56014.34782608696,10698.82624691259,29343.076923076922,9421.107630957351,35649.0,5679.199239329432,26748.7,4629.886207642072
1846.062992125984,36169.6,1725.327400814118,28551.76,7867.258797217745,32852.86666666667,7051.171579878686,54575.9,1190.9025526885061,34620.0,7313.860779369539,57715.5,149.78067298553574,59205.61111111111,6726.5126191386935,55522.46086956522,11000.065864851791,30208.115384615383,8711.506556657489,35925.933333333334,5652.957838944926,26784.885714285716,4452.875204509865
1849.2125984251968,36406.8,1616.087299622146,29418.88,7178.616564882122,34083.0,7069.244863019906,56045.7,1062.050756790842,34117.0,7219.85288631285,57992.5,145.37476200692961,59268.38888888889,7189.208974713335,54990.852173913045,11340.070869530471,31087.5,8027.052343601796,36019.666666666664,5596.383137547163,26889.842857142856,4419.133892633308
1852.362204724409,36663.8,1520.0762349303407,30233.48,6544.5666143450635,35175.53333333333,7124.234235964515,57645.8,918.7582707110723,33627.65,7151.201886920828,58182.0,142.7370209260973,59164.0,7679.958817887271,54492.82608695652,11761.471372949507,31931.076923076922,7409.440085370704,35973.933333333334,5533.218189163417,27082.685714285715,4571.441878016348
1855.5118110236224,37013.4,1442.5163569263261,31037.0,6073.050502012971,36174.0,7207.767837548598,59322.2,759.04990613266,33163.4,7099.709187001958,58305.0,141.29806388320705,58973.944444444445,8187.409497190877,54088.739130434784,12284.405377541607,32712.615384615383,6899.939676865205,35866.73333333333,5487.907609361594,27379.128571428573,4932.013129751462
1858.6614173228347,37514.2,1383.674441478197,31886.64,5859.003914523355,37147.6,7292.493042391835,60994.6,587.0780527323433,32740.55,7051.449882648249,58387.142857142855,140.75655637754605,58789.333333333336,8687.69496983457,53813.72173913044,12899.394682493625,33429.07692307692,6526.940883888497,35796.86666666667,5476.407835636625,27788.814285714285,5483.369652980226
1861.8110236220475,38195.6,1340.1015782395004,32839.28,5924.915915150189,38172.4,7337.8033388746535,62561.6,414.79204428243315,32374.8,6991.48226487059,58447.642857142855,140.36463084351675,58684.22222222222,9143.390639968398,53667.53913043478,13567.725243505314,34097.153846153844,6293.1300435921485,35866.13333333333,5497.95553354962,28314.4,6171.661967412021
1864.96062992126,39054.2,1305.823479647996,33934.56,6201.160408052673,39309.666666666664,7300.6940004967255,63908.7,259.18682451081503,32074.95,6910.145059801567,58487.42857142857,139.99424186409254,58693.555555555555,9509.657373324482,53609.48695652174,14225.967828841074,34744.88461538462,6172.78175869944,36160.46666666667,5535.866266046855,28950.314285714285,6925.232195267344
1868.1102362204724,40051.0,1275.1406196965102,35183.32,6574.034856737528,40590.53333333333,7148.969593507089,64918.8,135.9770568882854,31836.6,6805.916113206215,58485.28571428572,139.21177524673314,58797.555555555555,9742.586362187987,53560.252173913046,14795.580856601555,35401.38461538462,6119.421994304584,36736.333333333336,5563.840911536642,29683.057142857142,7672.779311837614
1871.259842519685,41118.2,1241.3776862824625,36561.88,6946.589789644988,42005.6,6867.875894821241,65483.8,50.29075461752388,31639.45,6685.4047183024,58396.78571428572,137.71252592236615,58917.22222222222,9811.456469950239,53410.24347826087,15194.936657573635,36088.07692307692,6082.690332935792,37608.26666666667,5558.1400062331,30492.514285714286,8356.06881552539
1874.409448818897,42171.2,1198.9380968173461,38012.08,7268.059790177844,43505.26666666667,6466.7965739528945,65514.6,33.80591664191344,31446.3,6556.802087145837,58165.21428571428,136.0373785668738,58924.38888888889,9704.801710372774,53034.495652173915,15353.680874842452,36811.346153846156,6023.984420900708,38748.666666666664,5502.4147264834755,31353.285714285714,8936.985789631852
1877.5590551181103,43121.6,1145.3583893262405,39451.52,7532.680171731706,45007.46666666667,5976.965505077714,64948.2,136.83990646006743,31206.4,6425.2218436408875,57734.57142857143,134.40382343929818,58662.166666666664,9436.460825789862,52311.04347826087,15225.758213370611,37559.88461538462,5924.9714074410595,40090.8,5391.597316813141,32237.442857142858,9400.891966245565
1880.708661417323,43894.0,1079.295140357817,40785.32,7768.227255790088,46412.666666666664,5445.727054816057,63754.9,296.2183147612585,30860.55,6288.66924297184,57066.42857142857,132.84723465357507,57975.22222222222,9047.000463969356,51141.65217391304,14802.845796343392,38306.07692307692,5792.847598700931,41541.53333333333,5228.5210128890385,33117.385714285716,9757.624856333574
1883.858267716536,44438.2,1000.8679033718685,41924.6,8021.530751670781,47623.8,4928.316740362102,61936.8,508.891304700719,30349.15,6139.472349273999,56156.28571428572,132.26241695498956,56740.055555555555,8600.618172047753,49469.973913043475,14121.7281073688,39011.57692307692,5660.624538614071,42996.666666666664,5020.9494675365495,33967.985714285714,10037.934139329178
1887.007874015748,44740.6,912.6012491773173,42801.56,8343.039566393054,48564.46666666667,4475.956655534347,59529.2,761.5719007421427,29621.1,5970.652484444225,55044.71428571428,132.2499951776551,54895.5,8182.652071099361,47295.8347826087,13266.495870969182,39635.653846153844,5585.878134548198,44358.4,4780.439126272816,34770.07142857143,10287.258744015653
1890.1574803149608,44825.8,819.2297357884418,43381.8,8772.688272131867,49194.46666666667,4129.685425738328,56594.1,1034.0342789288952,28642.1,5780.222261297571,53820.357142857145,133.2294514538504,52461.38888888889,7887.181345131329,44681.70434782609,12360.253365894712,40144.653846153844,5644.778860166048,45552.333333333336,4520.225181214858,35512.31428571429,10557.224642791653
1893.3070866141727,44754.2,726.5390285456109,43672.16,9329.735879133985,49517.8,3914.7601578300214,53215.4,1306.0797219159329,27401.95,5572.052606311251,52612.642857142855,134.60503447539566,49546.38888888889,7795.497618917166,41751.82608695652,11544.130447800788,40520.42307692308,5911.899246910531,46537.46666666667,4257.906744973273,36192.885714285716,10895.441558668808
1896.4566929133853,44614.6,642.9141777873622,43719.08,10005.169539473081,49581.26666666667,3840.5794782674257,49491.9,1558.5900326898025,25917.25,5352.1572087804,51576.57142857143,136.12584213865927,46339.77777777778,7950.439991706648,38681.45217391304,10941.460142001935,40766.11538461538,6436.113491176316,47313.8,4013.6518899044218,36821.1,11336.38647283289
1899.6062992125983,44509.4,575.7942688148258,43602.0,10762.763005845663,49467.0,3897.550837812553,45530.1,1776.6414635485685,24232.55,5123.2359644564485,50868.21428571428,137.3214053501745,43089.333333333336,8337.35352361754,35679.913043478264,10619.961391533208,40907.692307692305,7222.187947670656,47920.2,3805.2406178847614,37416.328571428574,11895.857940262149
1902.755905511811,44540.6,530.0436208464356,43420.08,11545.192966494757,49277.46666666667,4056.605935453376,41438.1,1949.9574585103135,22416.45,4882.719247253523,50620.357142857145,137.38247296344255,40069.38888888889,8893.738016397887,32968.46956521739,10575.857635134795,40992.46153846154,8233.402536342055,48426.53333333333,3643.330488562476,38007.25714285715,12568.18262084938
1905.905511811024,44794.6,505.3333948988529,43277.04,12286.94996646442,49115.933333333334,4272.023852409482,37320.1,2075.88287000977,20554.25,4625.7835106606535,50916.357142857145,135.86737606044736,37544.22222222222,9532.871035151977,30755.739130434784,10757.355489707825,41082.269230769234,9406.987164041306,48922.46666666667,3523.8639751777528,38629.614285714284,13327.625532053831
1909.055118110236,45330.2,497.064341911588,43264.16,12927.385101960876,49069.26666666667,4491.611002252484,33271.9,2156.666800875833,18739.05,4352.407695460066,51773.57142857143,132.76279291907602,35731.944444444445,10166.01833163485,29215.165217391303,11106.535791404389,41244.230769230766,10666.458940593217,49501.53333333333,3427.784568622843,39322.02857142857,14132.49106741668
1912.2047244094488,46171.4,498.8845958736349,43447.2,13420.72367050302,49194.2,4666.706550305758,29378.4,2198.5139162625287,17062.2,4073.646408317737,53136.21428571428,127.68386102928962,34775.0,10715.609211695702,28466.365217391303,11585.056537611707,41541.346153846156,11930.806849181878,50246.26666666667,3328.4074163012087,40121.4,14931.02892579266
1915.3543307086616,47305.6,505.9840313685799,43857.96,13744.396526526729,49508.4,4762.826930860844,25709.4,2211.011135204886,15600.75,3813.1022524317386,54881.07142857143,121.2167269726385,34723.833333333336,11122.532806325085,28563.069565217393,12171.375812855726,42021.42307692308,13120.949274327199,51214.53333333333,3198.089406018676,41057.57142857143,15669.34855932018
1918.503937007874,48687.0,515.4337978829095,44491.12,13900.865881865057,49990.6,4764.644356087871,22319.4,2203.081351198816,14409.6,3599.2794890088767,56834.07142857143,113.5161815310388,35533.22222222222,11350.81215672623,29488.94782608696,12843.46150743366,42710.53846153846,14165.996916318178,52432.066666666666,3016.6665812154683,42148.514285714286,16298.883480378
1921.6535433070867,50246.2,524.1123543668857,45307.36,13915.828730995509,50588.8,4678.383441603164,19245.9,2182.928924633141,13515.0,3455.3369589665203,58797.92857142857,105.64256737137889,37071.944444444445,11395.40218427406,31161.130434782608,13566.12228567704,43607.03846153846,15012.288998019561,53887.066666666666,2774.7375483497935,43394.9,16784.503945306216
1924.8031496063,51898.0,531.4007903644856,46242.16,13833.228365584078,51231.0,4530.309408123614,16507.5,2157.095558847591,12911.0,3391.7833067576707,60582.71428571428,97.94125686307261,39144.444444444445,11287.826890663244,33440.06956521739,14293.610054676905,44681.11538461538,15629.887130669102,55531.933333333334,2477.262614706447,44777.142857142855,17111.6788541675
1927.952755905512,53557.2,535.477133031841,47215.88,13708.081596839143,51841.333333333336,4360.7998297967715,14106.3,2129.388975739285,12559.7,3407.3184632493635,62036.357142857145,91.60833332559805,41517.77777777778,11098.125920650626,36144.747826086954,14983.676294028593,45876.96153846154,16018.749606634694,57288.73333333333,2146.7094033012995,46253.78571428572,17289.467750126176
1931.1023622047244,55146.4,535.2982719942219,48145.96,13598.570673361224,52354.26666666667,4216.891990817671,12027.7,2103.4335287809786,12394.65,3494.847969154023,63067.57142857143,86.42809917226349,43950.666666666664,10924.658636924694,39069.75652173913,15613.230322580132,47117.96153846154,16210.138099067151,59058.066666666666,1825.8962901058271,47762.72857142857,17351.327504522058
1934.251968503937,56605.6,532.5142627197886,48957.04,13558.310677897893,52725.46666666667,4136.1778953790445,10243.7,2078.67477254139,12327.05,3640.6798056819007,63658.57142857143,83.43664344511802,46219.27777777778,10867.619916295458,42002.747826086954,16185.55748907218,48313.807692307695,16263.869160762526,60728.333333333336,1572.828351163032,49223.985714285714,17350.742355870425
1937.4015748031493,57894.0,531.198644576584,49587.88,13628.314634818204,52936.73333333333,4136.397731789771,8715.5,2050.379781894076,12255.25,3815.9874590333757,63863.42857142857,82.37606646672694,48134.333333333336,10992.429485787026,44739.77391304348,16728.115500329466,49368.96153846154,16261.064281757323,62186.666666666664,1429.4864190408464,50545.94285714286,17354.1589538858
1940.5511811023623,58990.8,537.6301330840748,49995.36,13832.735384962729,52995.333333333336,4209.783726300227,7399.2,2007.8662206431982,12073.8,3968.51505729788,63794.21428571428,82.73466933640384,49551.27777777778,11306.49778178487,47098.18260869565,17281.218340998494,50190.346153846156,16293.253603733116,63328.0,1374.3549274720365,51633.02857142857,17431.228138824732
1943.7007874015749,59891.6,559.6694024153902,50152.24,14179.092764433131,52927.066666666666,4334.395851275649,6250.8,1936.5884333022339,11683.05,4029.0035799810357,63595.5,83.961513292018,50369.5,11777.524811879806,48925.19130434783,17885.97339374247,50694.653846153844,16449.826681205977,64060.933333333334,1330.2366940594527,52393.92857142857,17647.806184437468
1946.850393700788,60601.8,606.404947209371,50044.8,14664.133556402165,52766.333333333336,4494.281710005381,5231.3,1819.8121359085394,10999.75,3922.6402827050047,63413.92857142857,85.38272180993921,50526.555555555555,12384.565610388792,50103.36521739131,18575.63042517543,50814.846153846156,16807.99596275605,64313.333333333336,1251.4120380150132,52750.68571428571,18060.58876159662
1950.0,61129.4,684.3775566162292,49667.8,15282.35330307476,52543.666666666664,4698.8013034058895,4311.4,1642.8625140284869,9963.5,3587.3623109465816,63367.92857142857,86.78171654519524,49989.055555555555,13172.43179047405,50553.51304347826,19374.944416353464,50503.46153846154,17426.002331243984,64036.666666666664,1249.4266774093717,52646.91428571429,18716.479294799356
