Wavelength (nm),ABS_mean,ABS_std,HDPE_mean,HDPE_std,LDPE_mean,LDPE_std,PA6_mean,PA6_std,PA66_mean,PA66_std,PC_mean,PC_std,PET_mean,PET_std,PETG_mean,PETG_std,PLA_mean,PLA_std,PMMA_mean,PMMA_std,POM_mean,POM_std,PP_mean,PP_std,PS_mean,PS_std,PVC_mean,PVC_std,TPU_mean,TPU_std
1550.0,48632.71428571428,7367.01938269705,46559.92105263158,10268.068289045614,51636.71428571428,5313.251566045187,47.77777777777778,109.6666103793619,239.41935483870967,377.38854575106,64205.53191489362,340.3293055490257,55756.36956521739,6819.769683598897,54026.92307692308,8858.28501774589,44798.470588235294,15403.998751728479,54145.21551724138,9729.826789759662,42271.8125,5027.686138010581,50099.125,9669.101396598773,57702.93548387097,3202.7406503270017,54442.11688311688,11481.16753868148,30662.266666666666,5563.622195017279
1553.1496062992126,49502.57142857143,7248.647601754535,46869.07894736842,9957.814237497312,51743.333333333336,5668.622612016107,573.6296296296297,442.4006185237914,411.741935483871,483.3493338818167,64261.59574468085,326.91619458167656,55648.32608695652,7427.260224143596,54380.88461538462,8681.698049641436,45446.529411764706,15307.41265307393,54405.775862068964,9729.487211463822,43148.25,4925.991289831926,50403.4375,9549.133987580257,57743.54838709677,3080.0589734478713,54703.857142857145,11109.882981503843,31609.133333333335,5390.532921912473
1556.2992125984251,51071.04761904762,6803.601325601936,47781.89473684211,9203.079409659496,52062.47619047619,6039.261344135261,2259.4074074074074,1316.5673171873404,1860.032258064516,1465.5591795068653,64246.97872340425,299.9327931360129,55581.45652173913,7916.838174605582,54989.38461538462,8084.6709845852165,46933.58823529412,14526.142660567384,54786.8275862069,9473.6605297183,44510.4375,4729.869870947165,51139.895833333336,9100.355952835907,58051.3870967742,3334.4349299047644,55271.28571428572,10414.498159698687,33379.6,5090.050226340274
1559.4488188976377,53155.19047619047,6096.3905372578,49170.39473684211,8100.042831399018,52565.80952380953,6438.21450861626,4924.925925925926,2460.111423642282,4427.806451612903,2640.143219714328,64204.8085106383,262.7427054920292,55627.34782608696,8304.918488245885,55843.807692307695,7153.491966107993,49066.705882352944,13201.166057073746,55296.68965517241,9007.444204286881,46263.375,4459.105794256849,52256.8125,8394.330027505297,58542.51612903226,4117.955865208413,56088.11688311688,9457.225233450268,35830.46666666667,4692.4558867280675
1562.5984251968505,55519.09523809524,5212.810638497668,50869.31578947369,6778.8019516930135,53215.47619047619,6823.4209379937965,8327.703703703704,3733.7096319762477,7899.129032258064,3859.3755448587667,64186.02127659575,220.04607731802707,55868.413043478264,8580.035921623616,56923.653846153844,6001.662897399659,51594.705882352944,11518.506642201322,55942.85344827586,8385.987195659432,48282.5,4139.5319179829985,53680.083333333336,7519.862534296902,59111.8064516129,5252.444527163149,57079.64935064935,8322.265837453935,38768.933333333334,4240.929009335363
1565.748031496063,57911.57142857143,4247.786813898095,52695.60526315789,5379.182820639864,53969.666666666664,7106.035123372468,12192.407407407407,4988.031224910875,12019.322580645161,4968.414892206872,64235.27659574468,176.538309039777,56373.065217391304,8704.98622080715,58190.769230769234,4754.600123181859,54246.705882352944,9682.496650352277,56726.66379310345,7663.332561445429,50432.1875,3797.8014235006744,55317.479166666664,6567.202213746174,59653.3870967742,6469.740811866943,58162.181818181816,7103.200885803876,41975.86666666667,3781.4218642668734
1568.8976377952756,60105.28571428572,3293.333658321612,54487.26315789474,4040.7124742016695,54788.19047619047,7185.899762193336,16241.962962962964,6087.584879514611,16518.225806451614,5828.298272691872,64379.234042553195,136.02506226614577,57173.413043478264,8631.944517632284,59585.269230769234,3532.8270174475147,56772.294117647056,7886.507985643104,57638.43103448276,6882.741590163609,52584.0,3455.8147555967175,57064.916666666664,5613.240941564468,60081.51612903226,7560.905910353847,59253.62337662338,5889.5842246014545,45232.46666666667,3354.037246198809
1572.0472440944882,61929.52380952381,2427.267238981548,56112.36842105263,2876.0629469453975,55636.57142857143,6988.183656453694,20226.40740740741,6930.847563258791,21133.09677419355,6342.60510411643,64616.72340425532,101.05753619821536,58249.760869565216,8324.583954050438,61025.38461538462,2436.6876804529147,58973.117647058825,6289.4694331767805,58653.224137931036,6075.098571764802,54632.0625,3127.3032006177064,58813.625,4710.627614876988,60344.8064516129,8394.787708585396,60282.2987012987,4755.645648506013,48343.666666666664,2983.4380093368045
1575.1968503937007,63290.95238095238,1705.1440234154911,57491.13157894737,1966.3180549476979,56488.71428571428,6486.441089966474,23947.074074074073,7464.217355842055,25629.709677419356,6474.928980522455,64916.255319148935,71.84808680883322,59525.19565217391,7776.609710674376,62412.57692307692,1535.2200086150751,60726.470588235294,4997.649213470235,59729.16379310345,5263.59824471744,56503.25,2817.617311222374,60459.520833333336,3887.382179294866,60434.3870967742,8911.829733842247,61194.01298701299,3753.902071986575,51159.6,2675.5826231558117
1578.3464566929133,64180.142857142855,1158.0170771713208,58598.38157894737,1357.9596800182987,57328.04761904762,5711.057099014912,27269.40740740741,7686.917516670337,29817.58064516129,6256.945811548766,65219.8085106383,46.775442865125385,60873.5,7020.160033943237,63642.03846153846,860.7339212184534,61991.294117647056,4056.9196770993617,60807.90517241379,4473.810720369981,58160.75,2525.0857534943243,61911.958333333336,3155.273211614258,60380.967741935485,9115.906567497635,61954.97402597403,2914.8539914604885,53587.26666666667,2419.096069930989
1581.496062992126,64660.09523809524,789.4818617152166,59458.23684210526,1053.6552525727939,58145.80952380953,4740.926668701441,30129.037037037036,7646.463944234623,33560.54838709677,5783.711258792061,65451.85106382979,23.416650489445786,62138.413043478264,6124.780878338094,64615.57692307692,408.96794806485593,62799.94117647059,3450.1269963086056,61818.887931034486,3744.2433556602673,59600.75,2246.6988421904703,63102.291666666664,2523.832469003682,60244.74193548387,9062.11840564439,62552.53246753247,2252.0152509484255,55595.53333333333,2196.0298378867465
1584.645669291339,64845.142857142855,576.0547498545012,60131.26315789474,985.5410665750145,58938.619047619046,3689.5091359690514,32525.037037037036,7426.319309059484,36780.709677419356,5197.061658615832,65535.0,0.0,63160.69565217391,5186.329634846347,65258.0,144.96816626683676,63238.470588235294,3105.698313397622,62685.26724137931,3132.702318528379,60842.6875,1978.68579234899,63990.041666666664,2008.4074325023182,60096.41935483871,8837.71397888213,62991.155844155845,1768.5683260096419,57210.86666666667,1988.215845648779
1587.7952755905512,64866.666666666664,469.8742824094986,60694.10526315789,1036.9141919904687,59704.76190476191,2681.6351604546894,34508.11111111111,7128.308553893144,39455.1935483871,4654.7616578694215,65401.085106382976,23.743155598080058,63808.63043478261,4310.022043516188,65529.5,15.959684785782533,63417.35294117647,2923.482390437341,63332.31034482759,2708.126704663885,61916.625,1720.1228471754569,64566.5625,1626.3790162281005,59996.1935483871,8540.439870893388,63288.55844155844,1457.508837989791,58503.53333333333,1784.1328002390653
1590.9448818897638,64841.57142857143,429.8055564165389,61219.47368421053,1116.0712045017583,60440.23809523809,1834.701115006446,36162.37037037037,6851.83645643916,41609.903225806454,4281.077776228624,65009.63829787234,47.55754656624578,64003.565217391304,3585.754045083635,65431.96153846154,55.178368649896726,63444.23529411765,2813.2962147089133,63696.775862068964,2515.690383360918,62851.6875,1470.044205064511,64853.9375,1378.156579853592,59974.0,8261.3153174415,63468.96103896104,1290.3135372676147,59569.666666666664,1576.281813495149
1594.0944881889764,64842.80952380953,457.40849920764725,61759.23684210526,1167.1877906500988,61136.619047619046,1238.570546126633,37586.77777777778,6677.437484396592,43307.903225806454,4118.1267222260385,64350.17021276596,70.42524908344568,63737.934782608696,3063.729606940264,65013.38461538462,100.0284870666955,63398.35294117647,2726.992740152473,63734.862068965514,2530.548256993933,63664.125,1226.8087603106687,64899.854166666664,1232.051135126287,60015.709677419356,8070.070064825749,63557.93506493507,1215.347060021506,60509.13333333333,1360.848013392956
1597.244094488189,64881.71428571428,582.2844291775154,62333.78947368421,1157.0841337261415,61781.19047619047,928.0824377919606,38878.0,6653.638636949794,44637.32258064516,4126.985601381018,63445.27659574468,92.1445908475023,63077.82608695652,2740.2574641362175,64355.307692307695,142.7288362947697,63317.41176470588,2674.7001604099264,63429.19827586207,2670.1479754288307,64353.25,989.0601283541865,64769.666666666664,1147.798097324709,60058.67741935484,8007.897663726474,63578.454545454544,1184.336424929337,61405.066666666666,1136.4527540651318
1600.3937007874017,64903.52380952381,811.927490255815,62929.60526315789,1077.7198527562396,62356.380952380954,842.2156988840283,40117.333333333336,6791.111276541592,45698.41935483871,4243.21083367068,62343.936170212764,112.46586323788819,62150.80434782609,2575.650121557031,63559.192307692305,185.17954265455856,63195.58823529412,2717.785648363356,62792.43965517241,2855.8500132329496,64900.5,755.133349150996,64534.770833333336,1115.6049599429475,59997.25806451613,8079.262414305476,63548.55844155844,1179.4981487684583,62306.13333333333,905.7702333128174
1603.5433070866145,64797.619047619046,1129.1478234740728,63504.84210526316,951.5615843199339,62844.09523809524,879.1739036359456,41363.444444444445,7062.588190643518,46592.83870967742,4421.116543376172,61107.89361702128,131.70409031638349,61121.108695652176,2534.2346175681732,62723.03846153846,221.0583773871005,62993.35294117647,2915.648347657384,61866.1724137931,3044.920219428955,65275.25,525.1709840613817,64259.854166666664,1160.6224621150377,59699.54838709677,8250.33939414776,63481.142857142855,1214.4514844831247,63216.26666666667,675.118208579472
1606.6929133858268,64420.857142857145,1509.3608008726358,64003.10526315789,831.5567768530265,63230.04761904762,977.3832643090806,42650.666666666664,7409.451491669772,47414.0,4629.3781997293145,59796.34042553192,150.13076237928348,60153.63043478261,2601.925569221644,61919.38461538462,230.79895962355118,62656.0,3258.8534252185727,60716.85344827586,3225.6820723640567,65443.4375,305.33833053475286,63993.333333333336,1299.4493438461625,59030.354838709674,8454.351956425859,63385.753246753244,1311.749403489246,64092.26666666667,455.7965140522931
1609.8425196850394,63627.333333333336,1926.488449493468,64368.23684210526,777.1107905234121,63506.95238095238,1086.030319500926,43991.444444444445,7755.117509119183,48240.67741935484,4826.551205685382,58448.936170212764,168.63133706595545,59377.02173913043,2776.431354228806,61173.192307692305,190.9331375580244,62137.76470588235,3663.7798952867333,59426.84482758621,3402.637665013687,65376.1875,131.76030260951134,63759.291666666664,1504.8068391869733,57877.8064516129,8610.376408614371,63270.142857142855,1473.6725456490085,64848.6,261.5881750640371
1612.992125984252,62301.52380952381,2355.2776930412833,64561.81578947369,796.9122600870239,63678.52380952381,1143.5210293961372,45381.851851851854,8020.952671337109,49133.22580645161,4952.281785651471,57073.70212765958,188.26225651870757,58849.239130434784,3049.153062628765,60449.42307692308,162.95166179833893,61420.76470588235,4025.6244313502143,57608.53448275862,6445.199168200815,65062.5,193.0262287876961,63554.229166666664,1726.616262611925,56176.967741935485,8647.55819528813,63142.5974025974,1676.16198315064,65370.6,106.12118858487528
1616.1417322834643,60382.28571428572,2772.609122638598,64574.05263157895,835.4688235503785,63762.0,1101.9120179207118,46808.74074074074,8142.684940724143,50131.0,4943.31745732266,55639.65957446808,210.87036217157714,58535.80434782609,3402.531721217914,59648.38461538462,384.84363227390827,60528.82352941176,4263.827571219716,56298.862068965514,6458.739447975674,64509.8125,368.390794325469,63350.020833333336,1927.725629785691,53927.83870967742,8531.377225341885,63012.44155844156,1885.0766527768374,65533.6,5.238320341483518
1619.291338582677,57882.23809523809,3160.3957242387933,64428.55263157895,832.6390415694584,63785.0,946.70903661051,48254.666666666664,8083.400558712441,51254.16129032258,4756.415138945026,54079.31914893617,238.1303153320189,58304.30434782609,3810.433496219496,58616.230769230766,803.2116450510179,59530.23529411765,4344.366379433752,55071.14655172414,6499.326157717018,63744.5625,541.480605464083,63101.5625,2100.400575944285,51200.51612903226,8281.840355204555,62890.155844155845,2072.6883168555473,65221.666666666664,67.4997942383695
1622.4409448818897,54888.19047619047,3505.650223215138,64180.71052631579,766.939814694009,63783.76190476191,707.5649662086838,49703.18518518518,7840.113108769479,52502.51612903226,4388.62299567039,52298.40425531915,270.9017769374164,57936.04347826087,4235.746281746233,57164.269230769234,1347.6888923604424,58524.58823529412,4285.866335084954,53952.03448275862,6570.892918027978,62807.75,702.6846287631457,62758.5,2267.228456728611,48130.032258064515,7985.455805294664,62785.32467532468,2224.2265922218835,64350.53333333333,117.17216203328995
1625.5905511811025,51550.90476190476,3800.3640415192544,63905.34210526316,661.0449971273869,63796.380952380954,472.83395617635017,51139.22222222222,7443.144752217919,53859.3870967742,3887.0011716258336,50192.1914893617,308.34283477544324,57158.0,4625.635538002835,55099.92307692308,1963.23275243581,57623.94117647059,4152.200330520564,52930.69827586207,6669.888250911869,61742.0,852.4505117600669,62277.833333333336,2468.1591937222274,44896.8064516129,7786.907065064946,62703.55844155844,2338.3540136895076,62879.4,195.74534477223207
1628.740157480315,48059.42857142857,4039.4988087447605,63681.89473684211,584.7131455712947,63855.80952380953,405.0259978778104,52549.40740740741,6950.54399821023,55293.58064516129,3351.000031518695,47665.425531914894,347.73429234334304,55684.63043478261,4913.920463331015,52259.53846153846,2580.185894179082,56922.76470588235,4034.205884818878,51957.18965517241,6783.415700624516,60580.125,992.964493008184,61636.666666666664,2738.1857613918182,41699.77419354839,7848.4559307801765,62643.96103896104,2422.968526209434,60821.13333333333,319.67522407732645
1631.8897637795276,44611.09523809524,4221.510662860393,63575.36842105263,614.8527175396787,63982.666666666664,504.1242603180985,53919.92592592593,6434.465409466752,56761.87096774193,2919.5268920962617,44653.14893617021,385.20356479224785,53269.065217391304,5030.942700157539,48542.730769230766,3119.7307151751256,56470.17647058824,4011.6116789858634,50945.98275862069,6889.400420564561,59332.4375,1125.657583856543,60840.833333333336,3088.1582721565437,38723.3870967742,8270.944205089554,62596.2987012987,2489.5696027388813,58243.4,477.16688904407437
1635.03937007874,41376.90476190476,4346.617172937198,63621.5,734.2869348092604,64180.380952380954,571.9279405318451,55235.333333333336,5967.214884808614,58213.06451612903,2718.5666637982395,41135.51063829787,415.96531526540514,49749.67391304348,4919.104297463053,43937.61538461538,3506.041325362257,56248.35294117647,4115.888210069057,49785.5,6960.154826978868,57977.8125,1250.525350540224,59928.708333333336,3505.019668028111,36107.51612903226,9032.87192879418,62540.38961038961,2548.429601268069,55260.53333333333,650.795499540541
1638.1889763779527,38473.90476190476,4417.579954861753,63816.21052631579,860.7695197931826,64432.380952380954,517.7884727321873,56476.555555555555,5606.499240024479,59591.58064516129,2766.8189464086795,37147.97872340425,435.52157478189076,45087.717391304344,4548.469181866927,38536.07692307692,3678.8527886063457,56160.82352941176,4323.914242977402,48351.81896551724,6967.578213805883,56462.5625,1364.498441220711,58967.104166666664,3967.7919354870373,33923.25806451613,10008.171345222772,62446.98701298701,2606.463327528975,52018.86666666667,823.86130440074
1641.3385826771653,35946.380952380954,4438.9035913128955,64113.0,937.0011514906141,64702.666666666664,354.14125959288015,57622.37037037037,5383.764517634877,60841.12903225807,2962.974015344843,32781.17021276596,440.4709915895366,39388.891304347824,3929.237348437883,32533.80769230769,3604.83736984316,56037.76470588235,4585.33041377175,46525.456896551725,6888.877261249173,54703.875,1463.5679807836054,58041.6875,4460.867489234624,32160.516129032258,11026.629780411422,62281.02597402597,2669.3516649204657,48678.2,984.5277852859208
1644.4881889763778,33761.80952380953,4416.569414408682,64430.15789473684,944.7339231739104,64941.380952380954,299.23672364876165,58650.666666666664,5302.237626875266,61909.77419354839,3192.075547954678,28172.936170212764,428.7168586164164,32901.95652173913,3119.312242734744,26215.76923076923,3285.1620649367374,55657.529411764706,4852.672230693797,44208.706896551725,6710.7446616668685,52604.0,1541.1930849183045,57242.0625,4978.341827381926,30729.09677419355,11920.45883062268,62005.33766233766,2744.3015794025664,45389.6,1123.9963701009003
1647.6377952755906,31819.714285714286,4355.226167030411,64666.02631578947,898.5964636980482,65092.0,598.6615229389802,59540.51851851852,5341.585846990403,62753.58064516129,3396.8384330536755,23492.574468085106,400.0196135979021,25998.239130434784,2229.9678120584244,19926.576923076922,2757.19298692706,54779.64705882353,5091.918382752123,41342.08620689655,6431.09920428281,50065.5,1589.6196479032335,56643.854166666664,5519.141229958936,29475.064516129034,12542.319682901396,61586.74025974026,2843.136211466235,42276.73333333333,1237.9649142398541
1650.7874015748032,29974.809523809523,4258.252554847079,64717.52631578947,842.4390572005509,65102.0,994.7474912904136,60275.96296296296,5467.267788640166,63339.74193548387,3573.431349672477,18921.44680851064,355.8641749325895,19131.239130434784,1448.3428339159777,14033.884615384615,2091.196958073443,53186.64705882353,5277.431549322593,37916.1724137931,6058.640436252239,47013.4375,1601.3114925253456,56290.208333333336,6078.678916776562,28208.032258064515,12775.00508549579,60999.68831168831,2980.2435063926996,39421.26666666667,1324.1101901109118
1653.9370078740158,28066.904761904763,4126.186408373233,64502.0,835.442586770314,64930.0,1359.6704782864888,60846.62962962963,5637.620460390925,63649.77419354839,3740.5926019185217,14632.148936170213,299.86812553459936,12783.608695652174,1069.9812163784215,8884.961538461539,1380.8099206560794,50727.294117647056,5387.10358459366,33978.84482758621,5610.945432664207,43413.8125,1568.7658452885025,56179.291666666664,6643.39358548003,26735.129032258064,12539.696962799164,60229.23376623377,3165.5488348583135,36852.46666666667,1383.156962250569
1657.0866141732283,25954.809523809523,3958.499747307445,63973.39473684211,911.3048348810415,64556.47619047619,1640.051701247994,61247.666666666664,5810.82097214932,63679.32258064516,3910.7683956389983,10771.68085106383,236.77065897713587,7410.108695652174,1147.2598399487226,4767.576923076923,730.7224124678538,47348.117647058825,5406.460719876816,29634.724137931036,5111.60904990518,39287.125,1488.1356992475519,56255.1875,7188.146349651655,24897.387096774193,11805.079387027732,59271.71428571428,3396.804418277521,34549.8,1416.7510343505428
1660.236220472441,23544.238095238095,3755.2655083960112,63133.15789473684,1054.2631631497493,63984.28571428572,1814.7696205056454,61476.81481481482,5951.393668321402,63438.06451612903,4076.545121162027,7448.553191489362,172.42041747471444,3383.195652173913,1222.9005722242157,1877.8461538461538,243.4052796829083,43116.0,5335.596543085716,25038.387931034482,4587.005338869779,34715.5625,1358.5428760601374,56409.833333333336,7681.390554269602,22599.612903225807,10595.476961595663,58131.68831168831,3654.481686416952,32447.8,1427.5941159867534
1663.3858267716537,20808.85714285714,3519.583813135734,62028.94736842105,1229.7821147916795,63238.42857142857,1889.9481870304974,61531.18518518518,6035.589467895054,62946.67741935484,4214.028310965548,4729.148936170212,113.00762141939042,949.9130434782609,999.2645518642579,299.65384615384613,59.259496030783836,38215.94117647059,5199.255483699093,20380.629310344826,4063.8500569045327,29839.5625,1185.4457478492004,56491.791666666664,8089.383098539132,19830.967741935485,8993.13350422231,56817.97402597403,3903.640924426557,30452.4,1418.3706520746496
1666.5354330708662,17796.52380952381,3258.6911865706306,60745.68421052631,1418.6515670516355,62359.04761904762,1892.0076884015355,61398.96296296296,6054.649462168671,62233.16129032258,4297.076816573544,2639.531914893617,64.15733687628087,206.3695652173913,399.2811126259431,0.0,0.0,32933.64705882353,5043.241942163516,15869.5,3565.383561365477,24845.1875,979.5294290340388,56323.270833333336,8382.940630479816,16670.774193548386,7134.181010525801,55336.805194805194,4100.9748319686805,28456.8,1392.3385699366852
1669.6850393700788,14623.666666666666,2982.1468829931955,59385.26315789474,1621.2813432300443,61389.857142857145,1860.7305857982694,61058.48148148148,6015.706660071402,61328.58064516129,4310.15099484172,1173.7659574468084,30.50232831430961,1089.695652173913,652.1402513051934,836.1538461538462,335.4040837680484,27616.352941176472,4920.881842792675,11709.396551724138,3109.3658486382337,19944.0,757.7181204115419,55723.479166666664,8539.361219741946,13280.41935483871,5196.915429890297,53686.05194805195,4203.81603665392,26362.4,1351.814770348857
1672.8346456692914,11455.190476190477,2700.4941279601762,58043.34210526316,1850.6112685203543,60365.0,1844.5237351478593,60473.2962962963,5937.6400712667155,60262.354838709674,4256.816018578319,305.531914893617,13.124365944287193,3395.8260869565215,1966.249644731418,2581.6923076923076,940.5618521039094,22625.823529411766,4865.179752864396,8079.103448275862,2706.0465098435366,15348.375,543.5813962738239,54531.854166666664,8545.05812099793,9879.709677419354,3388.1681718701757,51850.57142857143,4178.138575871278,24095.733333333334,1296.4328735247175
1675.984251968504,8476.952380952382,2422.895738499118,56783.05263157895,2123.1791697130984,59295.09523809524,1898.825775120782,59593.92592592593,5847.641094055227,59058.45161290323,4161.187941726301,0.0,0.0,6805.891304347826,3507.155407649146,4952.7692307692305,1755.021965843082,18284.117647058825,4868.616494898161,5113.543103448276,2359.1925649439727,11245.6875,370.0675138994911,52631.854166666664,8394.256089209613,6715.677419354839,1937.5372860028797,49800.844155844155,4005.6286730826273,21621.866666666665,1225.0291896749056
1679.1338582677165,5864.523809523809,2155.334260211773,55616.47368421053,2454.278827903821,58156.666666666664,2076.558492940465,58364.333333333336,5775.551350945415,57735.12903225807,4065.048662502328,219.80851063829786,23.097055442679856,10930.95652173913,5139.609780300622,7645.038461538462,2692.709108811154,14827.411764705883,4889.688478695255,2889.646551724138,2071.3815282123046,7775.8125,282.3637323449136,49967.979166666664,8088.891774860097,4025.1935483870966,1102.907723433828,47495.66233766234,3689.284827081639,18950.4,1136.581118970397
1682.283464566929,3754.3809523809523,1901.0786781692045,54492.05263157895,2855.8181143926295,56887.619047619046,2396.73369949685,56730.7037037037,5749.9059175221855,56302.93548387097,4020.363752885438,934.8723404255319,59.54780558376235,15358.673913043478,6729.343562708896,10367.115384615385,3654.6182093232615,12372.058823529413,4879.027620945752,1423.8103448275863,1848.8023192745766,5016.625,288.951742294453,46555.395833333336,7637.676568443397,2001.6129032258063,868.7227434543182,44888.2987012987,3256.2860928625023,16135.2,1030.6905258126708
1685.433070866142,2223.2380952380954,1660.8460524616135,53296.92105263158,3333.270508560773,55388.42857142857,2825.7986240964833,54654.666666666664,5793.986691197848,54769.645161290326,4076.2845871430286,2116.531914893617,106.84525518668411,19699.804347826088,8153.661347809565,12868.576923076924,4544.52426361048,10899.882352941177,4806.684498540768,654.1637931034483,1716.4793907978878,2977.9375,323.8092549538231,42480.458333333336,7056.45063032853,766.9354838709677,611.2179240470446,41936.844155844155,2761.756381974148,13267.333333333334,910.4735519985679
1688.5826771653544,1277.6190476190477,1435.0737321754746,51870.10526315789,3879.4899677628114,53535.380952380954,3290.9065399788074,52126.51851851852,5922.045982599885,53142.967741935485,4261.694237407579,3734.1702127659573,160.7993753492864,23626.565217391304,9314.45999427112,14961.346153846154,5280.932048725343,10266.470588235294,4673.332519452285,488.66379310344826,1686.6321724788666,1605.0625,337.818085060214,37890.3125,6369.321291538349,356.51612903225805,336.19770210568765,38615.74025974026,2288.61786341512,10460.466666666667,781.3921650205839
1691.732283464567,857.4285714285714,1222.8623942922402,50028.18421052631,4468.772343221364,51195.47619047619,3705.884157969627,49176.74074074074,6134.350740449939,51434.54838709677,4575.887813301017,5747.574468085107,217.198678014163,26900.41304347826,10148.554580260457,16528.76923076923,5808.271385292453,10227.529411764706,4502.052539971558,782.0775862068965,1761.5577752956385,792.25,321.6483911043237,32977.6875,5610.072957622187,719.5483870967741,1381.7302112536104,34927.32467532468,1940.8177312706378,7836.8,651.5784117561498
1694.8818897637796,849.0952380952381,1024.5385909096049,47598.21052631579,5054.490135970793,48252.23809523809,3991.729174236839,45882.555555555555,6417.592241085398,49666.645161290326,4991.040311419907,8098.68085106383,271.7538080441739,29385.543478260868,10633.319913298219,17526.884615384617,6102.055948152123,10483.411764705883,4319.063311561125,1370.0689655172414,1912.181033686033,402.375,290.3691346803238,27957.729166666668,4824.310653431841,1729.0,2925.4442397694065,30911.454545454544,1795.5083680902014,5508.2,529.3231149307576
1698.031496062992,1111.1904761904761,842.0548347175508,44451.15789473684,5573.21598798696,44628.52380952381,4092.3952890469977,42368.148148148146,6746.9830113784865,47874.290322580644,5465.393532409162,10706.489361702128,321.5019190135259,31049.41304347826,10787.849613612381,17977.5,6169.2307228323425,10729.35294117647,4133.232205389363,2090.3189655172414,2094.9325336809275,287.375,276.3122950123646,23044.458333333332,4073.5042191292614,3208.4193548387098,4724.132661641361,26648.571428571428,1825.075329728522,3562.4,419.93790017096575
1701.181102362205,1498.6666666666667,693.2958781091768,40533.52631578947,5954.466902369409,40309.76190476191,3984.4042860557242,38796.77777777778,7091.957658651014,46106.645161290326,5954.829574487104,13467.510638297872,364.38784997029694,31952.065217391304,10670.202337843892,17953.346153846152,6045.462220302149,10706.0,3928.9466182950064,2803.094827586207,2271.356969387912,312.5625,307.04172533020653,18430.020833333332,3437.329422977375,4959.612903225807,6619.220091849917,22259.454545454544,1914.1124120218126,2051.266666666667,323.8636475775295
1704.3307086614172,1889.3809523809523,633.8041214753126,35886.18421052631,6131.962735730076,35359.71428571428,3682.2174626408023,35355.48148148148,7422.361121639626,44425.45161290323,6419.682596106716,16261.021276595744,399.33074274402907,32224.956521739132,10370.359565600835,17563.346153846152,5786.0784643454435,10238.764705882353,3680.8028780402815,3407.1724137931033,2416.820108280864,371.875,372.93177576468327,14266.854166666666,3007.5120669582207,6794.290322580645,8466.684833924264,17896.155844155845,1956.8602539871558,986.0666666666667,237.2311015772501
1707.48031496063,2203.3333333333335,738.8349473089909,30651.263157894737,6056.467768054641,29924.714285714286,3234.3683735020363,32234.51851851852,7714.192400880678,42900.67741935484,6829.18457035258,18960.68085106383,426.78581535298207,32047.347826086956,9998.356026209663,16934.615384615383,5456.231434557704,9264.35294117647,3376.7319728709585,3850.560344827586,2521.5717706689143,398.0,444.73967104363425,10658.291666666666,2847.95977381421,8561.129032258064,10147.670257786762,13728.57142857143,1898.5878923973205,338.4,154.12670112605406
1710.6299212598426,2412.4285714285716,1006.7138701371559,25062.13157894737,5705.974925559,24228.571428571428,2714.3025337824743,29603.51851851852,7950.264451089012,41603.83870967742,7162.107353857451,21450.021276595744,447.4902347377028,31619.804347826088,9666.08272488545,16198.23076923077,5120.572769252196,7833.411764705882,3037.9313793672077,4133.146551724138,2589.480240932099,366.1875,499.016184450715,7655.770833333333,2938.447572270541,10163.387096774193,11578.812423581212,9926.766233766233,1728.2359439095349,45.733333333333334,71.92910089494761
1713.7795275590552,2539.285714285714,1380.530061860545,19418.657894736843,5092.653306357449,18553.238095238095,2201.4375585655475,27589.48148148148,8121.94957607616,40599.032258064515,7408.588235562879,23637.76595744681,462.6131241879026,31140.782608695652,9463.498059277996,15476.423076923076,4833.678875851401,6096.882352941177,2721.2652741034867,4302.163793103448,2634.32152471668,289.0,523.0433777422289,5263.666666666667,3181.7811726383,11566.09677419355,12715.317294266019,6641.519480519481,1462.933723990715,21.6,28.215362245887725
1716.9291338582675,2646.6666666666665,1811.5824267443336,14051.631578947368,4263.550796059749,13209.761904761905,1755.8480763210073,26259.51851851852,8226.632785678343,39935.1935483871,7570.62792989205,25472.212765957447,473.538555179286,30785.956521739132,9432.962972093777,14874.076923076924,4633.568569298455,4273.882352941177,2494.8217166611075,4441.146551724138,2676.8285411784263,204.5625,512.6568014702916,3449.0208333333335,3475.89866371264,12790.935483870968,13549.050201053817,3986.6493506493507,1136.2283560292944,169.73333333333332,94.59208329570833
1720.0787401574803,2818.6666666666665,2261.143228195131,9279.973684210527,3297.9588702459278,8503.380952380952,1391.2235271495128,25611.37037037037,8266.869088687232,39637.709677419356,7659.911854936075,26948.936170212764,481.46122462704636,30695.304347826088,9559.517874575524,14473.846153846154,4537.73892943567,2611.235294117647,2384.092761949051,4654.103448275862,2739.7315196280233,164.6875,469.9792174594,2154.7291666666665,3754.395239469242,13901.645161290322,14101.949704020879,2025.4805194805194,788.4129317300741,396.6,156.33673059563878
1723.2283464566929,3138.8571428571427,2691.5686395662656,5369.368421052632,2296.199897554454,4695.857142857143,1072.7524582748315,25574.074074074073,8247.178960670604,39704.77419354839,7695.806305446294,28112.340425531915,487.46200186208705,30963.043478260868,9782.869855354576,14332.846153846154,4544.5814708905955,1339.1176470588234,2336.339491908932,5048.25,2844.19624994297,218.625,404.28577068083905,1312.2708333333333,3986.436126309979,14982.032258064517,14417.293854802765,764.2337662337662,459.7157760007778,622.2666666666667,198.1109004797285
1726.3779527559054,3669.0476190476193,3066.5233529068228,2499.2631578947367,1367.406355577682,1973.0,750.7332923152378,26020.74074074074,8173.026161495406,40104.74193548387,7701.349672110231,29047.85106382979,491.699353684507,31635.869565217392,10024.136852375901,14482.576923076924,4635.402282543115,633.8235294117648,2252.1425677182874,5716.068965517241,3007.0408891527995,403.8125,330.2707636829969,853.7916666666666,4165.1182904287225,16113.548387096775,14548.903441305565,152.67532467532467,196.8157185121808,789.6666666666666,216.69692096464027
1729.5275590551182,4435.0952380952385,3351.3049470426536,740.1052631578947,613.4036101293076,420.7142857142857,400.4387050006343,26786.51851851852,8049.833439134329,40779.290322580644,7699.597187593431,29868.255319148935,494.4502844051183,32714.239130434784,10210.896228570866,14930.846153846154,4782.450536093135,591.0588235294117,2048.958945719917,6721.5948275862065,3238.8872662947606,737.5,271.92393237815605,718.75,4300.089168164617,17353.516129032258,14551.8170240473,92.0909090909091,161.17854758952757,868.8666666666667,215.16315256619157
1732.6771653543308,5419.380952380952,3518.7665516984034,49.21052631578947,124.34272625854393,14.333333333333334,44.58628161146103,27695.48148148148,7880.538651313263,41649.32258064516,7710.069990005307,30693.72340425532,495.57332807042184,34157.69565217391,10293.23546520505,15663.0,4954.27693241677,1216.1764705882354,1695.9952218056344,8091.439655172414,3543.8494808485057,1214.5,256.9883265831349,858.2291666666666,4410.830048677457,18721.516129032258,14474.96840683157,449.75324675324674,305.11229169177483,858.0666666666667,204.9150935279184
1735.8267716535431,6561.809523809524,3552.708123578107,279.6578947368421,171.08512444421984,621.0,312.19392630070115,28586.48148148148,7668.509089586089,42624.06451612903,7748.65144535771,31632.382978723403,494.82597642435746,35894.04347826087,10247.951394338206,16646.615384615383,5122.251811586559,2431.470588235294,1243.7846001168728,9811.327586206897,3918.7851692880663,1810.875,291.3758043746941,1233.875,4523.01111735405,20193.935483870966,14354.58346253678,1079.3636363636363,440.77222403740535,778.7333333333333,207.12877368653753
1738.976377952756,7772.952380952381,3452.4700678153604,1209.3157894736842,315.3429298952223,2023.0,589.6272430224758,29337.333333333332,7416.822345432288,43611.12903225807,7826.970310497874,32761.76595744681,492.20676388645114,37829.17391304348,10079.260252152626,17835.923076923078,5266.028688483286,4095.8823529411766,928.1047026603981,11829.379310344828,4352.302190349799,2491.3125,352.3367917827345,1815.125,4662.110598685428,21707.74193548387,14213.67647377499,1837.974025974026,569.4591184949439,672.0666666666667,236.7410587306074
1742.1259842519685,8949.809523809523,3234.926695556421,2574.5526315789475,683.3659610366915,3945.4761904761904,774.2874216580484,29880.48148148148,7131.435933378304,44527.67741935484,7951.146451672345,34117.10638297872,487.4352432295353,39859.260869565216,9811.455495080589,19177.03846153846,5374.240550861183,6036.0,1177.0855334006856,14065.01724137931,4825.279093201651,3216.25,418.17856532825783,2573.4166666666665,4846.112053463294,23173.870967741936,14062.460950464918,2605.2987012987014,707.4236421542842,589.2666666666667,285.9185120896434
1745.275590551181,9996.285714285714,2934.6318523527852,4109.684210526316,1304.9274854880907,6095.952380952381,869.2456212793819,30210.333333333332,6822.496377046661,45309.06451612903,8121.262876272082,35687.063829787236,480.9108115770695,41881.608695652176,9480.850965013316,20615.0,5445.583475130593,8080.058823529412,1832.1385277252064,16420.379310344826,5312.1020689183315,3951.375,478.99815696409524,3477.8125,5079.2558413948545,24495.225806451614,13902.504438362494,3296.3636363636365,859.0680227831757,585.5333333333333,334.0887839415678
1748.4251968503936,10841.619047619048,2601.1584319699978,5585.526315789473,2069.2628325952483,8204.57142857143,916.7990158012549,30378.37037037037,6504.18027487023,45915.12903225807,8327.766051151144,37418.78723404255,473.199653610879,43806.434782608696,9125.903594694595,22100.26923076923,5485.493278132594,10087.117647058823,2571.703186659926,18794.28448275862,5783.783697435852,4674.0,533.4677825323662,4493.291666666667,5349.514779235954,25586.8064516129,13731.259894311215,3867.896103896104,1015.9179916848485,711.7333333333333,364.2262056591877
1751.5748031496064,11453.809523809523,2291.078382376956,6838.605263157895,2866.302831720716,10059.047619047618,980.40989854295,30479.074074074073,6192.87158263091,46332.67741935484,8552.431008432995,39229.914893617024,465.0577099758344,45565.52173913043,8777.376952288814,23594.23076923077,5504.1826634750605,11969.764705882353,3271.751492242285,21095.224137931036,6211.622476824374,5373.8125,584.9548293191108,5579.166666666667,5632.258318284849,26392.935483870966,13545.867454416193,4318.298701298701,1163.7844789199316,1010.8666666666667,364.8551980656923
1754.724409448819,11845.761904761905,2054.086424313435,7786.789473684211,3598.496968091384,11530.57142857143,1096.9802086780292,30629.777777777777,5904.6910122899135,46573.93548387097,8771.521433246467,41025.55319148936,456.92067417639834,47118.04347826087,8453.77893364732,25073.76923076923,5511.162339412707,13700.35294117647,3887.2928420866892,23251.577586206895,6571.37577464313,6055.125,640.4839844797058,6692.770833333333,5898.3796229684385,26900.064516129034,13347.275855770387,4680.480519480519,1289.4903917438587,1512.5333333333333,335.27379193064814
1757.8740157480315,12072.190476190477,1912.182538084928,8432.736842105263,4192.010443966818,12583.904761904761,1243.556225575587,30945.222222222223,5651.1944350915655,46671.87096774193,8961.580047686492,42717.936170212764,449.41230674924026,48453.52173913043,8162.221276256292,26531.884615384617,5513.578520531925,15308.235294117647,4411.828732868728,25217.69827586207,6846.29120994545,6729.9375,709.5507794328395,7793.229166666667,6122.432224477127,27140.774193548386,13140.89120488747,5010.402597402597,1385.070650921895,2233.2,290.72718024521436
1761.023622047244,12219.047619047618,1854.5793381632263,8850.552631578947,4605.333879532163,13274.238095238095,1370.01212732769,31515.51851851852,5436.414207438782,46672.06451612903,9104.736873969767,44242.10638297872,442.60237349463836,49589.47826086957,7900.365813597358,27977.19230769231,5513.762459792565,16861.823529411766,4864.710852120656,26976.172413793105,7028.993576210711,7413.25,801.8779130890188,8847.020833333334,6289.443130786644,27187.90322580645,12936.692957168541,5373.142857142857,1449.2819423504195,3174.733333333333,276.4179122673171
1764.1732283464569,12387.238095238095,1852.9182621388888,9163.0,4834.137668705765,13728.285714285714,1445.7328391431356,32388.666666666668,5256.480472993594,46624.0,9193.285793306948,45567.255319148935,436.6307397529846,50566.13043478261,7661.021647185116,29427.923076923078,5508.387652711488,18444.29411764706,5280.923123010017,28535.19827586207,7122.116818004839,8116.9375,921.5789079583744,9832.791666666666,6397.2023180656,27143.322580645163,12748.225549861258,5828.558441558442,1487.944668828003,4326.733333333334,346.92390456057586
1767.3228346456692,12673.52380952381,1888.7448495167268,9512.0,4908.898718814531,14114.42857142857,1484.9396836052224,33561.7037037037,5099.315254066633,46572.41935483871,9228.818278855724,46699.70212765958,431.44373735877923,51436.5,7433.9620419601515,30904.846153846152,5491.769461884322,20129.117647058825,5699.587630928202,29922.83620689655,7136.685182603029,8843.875,1068.2527717609723,10744.104166666666,6455.356226420245,27119.483870967742,12588.985477254077,6420.519480519481,1513.304448389885,5667.333333333333,490.69456442430214
1770.4724409448818,13153.047619047618,1959.518781455101,10027.131578947368,4886.399304896961,14608.857142857143,1544.4103293186442,34981.59259259259,4948.38665260192,46549.8064516129,9218.463409915905,47678.234042553195,426.62097447544835,52255.586956521736,7206.590424520211,32422.615384615383,5456.405756095118,21955.058823529413,6150.316399996767,31179.491379310344,7090.2141698303885,9586.1875,1235.4780056090638,11589.25,6481.77493213343,27219.935483870966,12468.758214641606,7168.961038961039,1542.4443785173257,7165.533333333334,666.3803585207341
1773.6220472440946,13867.380952380952,2067.5139540311156,10799.315789473685,4837.164665952583,15359.42857142857,1687.8408459000023,36555.40740740741,4783.758333881653,46571.354838709674,9172.07549083485,48562.765957446805,421.7328595195677,53068.760869565216,6965.239014547394,33981.07692307692,5397.701433324522,23912.470588235294,6642.245200830701,32350.23275862069,7003.417970162065,10325.75,1414.2966228836156,12388.3125,6497.4763214787545,27521.41935483871,12390.39825904276,8069.064935064935,1593.2240965280005,8783.933333333332,845.1907450721143
1776.7716535433071,14817.57142857143,2203.431535267716,11862.868421052632,4830.553096647327,16458.04761904762,1928.4220906319208,38167.51851851852,4586.432716662469,46633.51612903226,9098.490796053424,49418.21276595745,416.5355562545224,53902.086956521736,6699.12079833611,35560.03846153846,5315.6533608171685,25940.352941176472,7157.673569970627,33477.775862068964,6898.138977022274,11037.0625,1594.7378886806916,13167.4375,6522.171452394294,28061.225806451614,12347.942565228133,9092.83116883117,1680.6673875576728,10480.533333333333,1009.0774576590023
1779.9212598425197,15966.095238095239,2341.2276776402487,13189.315789473685,4920.80447587086,17923.666666666668,2218.2709769061416,39700.2962962963,4341.159000516343,46716.32258064516,9006.533164202374,50298.46808510638,410.5127489695612,54757.086956521736,6405.614584864583,37117.46153846154,5216.979255873366,27932.823529411766,7655.228764671005,34598.56034482759,6794.851934760904,11692.9375,1769.189802874115,13951.458333333334,6570.016596752037,28831.354838709678,12327.958760341071,10197.545454545454,1812.3336863809127,12211.4,1147.3447491200425
1783.0708661417325,17246.47619047619,2447.8919136395048,14692.157894736842,5137.669882074413,19698.333333333332,2490.4382351655713,41054.2962962963,4040.286566796733,46786.41935483871,8905.783871873862,51232.89361702128,403.22504323413807,55609.04347826087,6093.6568301248335,38592.692307692305,5115.166835155945,29758.058823529413,8076.521495490991,35740.543103448275,6710.947660857057,12271.625,1931.4846904324663,14756.333333333334,6649.02640847181,29782.09677419355,12313.076207849612,11333.545454545454,1986.9597381881283,13933.066666666668,1256.8097425182893
1786.2204724409448,18577.095238095237,2495.9951141733677,16244.078947368422,5482.705816721766,21656.95238095238,2695.1873771098785,42164.37037037037,3686.6927781690147,46804.22580645161,8807.123988511314,52218.70212765958,394.8091871408164,56412.80434782609,5782.915857034954,39914.846153846156,5028.117935801761,31281.58823529412,8358.626189250617,36923.81034482759,6658.742462970679,12761.1875,2079.344103880777,15584.145833333334,6758.672952799188,30831.483870967742,12285.390554982348,12454.155844155845,2195.212524486103,15605.266666666666,1339.9757941428975
1789.3700787401574,19876.619047619046,2471.9102209808448,17697.894736842107,5931.30578855455,23630.428571428572,2812.0697100928646,43007.59259259259,3295.192955169239,46729.87096774193,8721.40169535481,53220.48936170213,385.3132393780651,57111.02173913043,5495.5727497098505,41014.769230769234,4976.269875099469,32393.117647058825,8445.847318495384,38162.775862068964,6643.822046141563,13162.75,2213.741925451113,16419.083333333332,6891.054539018119,31881.225806451614,12229.840372206687,13523.0,2422.8836902796997,17194.333333333332,1404.7561433295896
1792.5196850393702,21080.761904761905,2381.7887816625375,18914.105263157893,6437.6325281788995,25434.714285714286,2849.597467694544,43605.11111111111,2889.948139139106,46530.45161290323,8654.08570239704,54177.914893617024,375.0111391132686,57647.086956521736,5245.530904560513,41838.38461538462,4977.43622666655,33027.05882352941,8300.614537636486,39468.68103448276,6663.871489942458,13492.4375,2337.5324588321228,17229.4375,7030.389841923923,32834.58064516129,12135.557458318162,14518.61038961039,2653.145069025562,18674.533333333333,1461.5696524247105
1795.6692913385828,22151.95238095238,2249.1343832512325,19783.236842105263,6944.171332602429,26904.238095238095,2838.088338917789,44012.444444444445,2501.9148271812,46183.83870967742,8601.861726831803,55018.65957446808,364.55634807114234,57978.52173913043,5030.765741433364,42360.769230769234,5042.761387204834,33176.17647058824,7911.702882330067,40851.637931034486,6709.184409290864,13777.1875,2455.368740605726,17971.020833333332,7156.634260395454,33614.1935483871,11996.757541557892,15435.454545454546,2869.626287019734,20031.8,1520.8973754552496
1798.818897637795,23084.428571428572,2111.8301377270486,20243.92105263158,7393.409111042145,27919.04761904762,2818.063392375465,44306.92592592593,2161.093891835301,45682.58064516129,8551.275278498386,55674.55319148936,354.44153306596957,58087.586956521736,4838.075199264983,42593.769230769234,5174.4318625904925,32896.64705882353,7296.816219027039,42320.94827586207,6766.240606540715,14051.125,2572.7654351640767,18595.145833333332,7249.187014732477,34174.25806451613,11813.512397217397,16281.155844155845,3058.7259340040523,21263.6,1589.857721097499
1801.968503937008,23902.85714285714,2010.9027180588819,20292.394736842107,7738.759449541446,28426.333333333332,2830.8796770671383,44570.37037037037,1889.6184633147145,45033.096774193546,8484.618573953308,56096.8085106383,345.53724055218726,57989.19565217391,4656.24267548681,42590.692307692305,5363.022854332683,32299.29411764706,6504.04675625971,43883.724137931036,6820.818884231303,14348.4375,2693.9954985288578,19058.25,7293.336229337481,34507.54838709677,11593.486140623105,17071.51948051948,3211.833516129813,22379.133333333335,1671.5595858026986
1805.1181102362204,24654.14285714286,1974.5890539483878,19981.526315789473,7954.541542040264,28448.238095238095,2913.89039413375,44872.48148148148,1696.1939173374665,44254.51612903226,8385.491506055381,56268.04255319149,338.45317457621115,57730.80434782609,4491.032381649521,42441.153846153844,5589.107323056075,31532.352941176472,5607.820662370978,45541.30172413793,6862.668296058115,14697.0625,2822.108220567339,19330.083333333332,7284.392364367502,34645.45161290323,11352.515690617794,17824.22077922078,3327.6234123820495,23397.6,1765.554976015568
1808.267716535433,25394.666666666668,2006.0530385936445,19411.0,8040.443225541606,28077.714285714286,3095.925634994317,45257.96296296296,1575.5793403975304,43374.709677419356,8246.056180297102,56207.82978723404,333.9584200866378,57387.760869565216,4369.514788428447,42260.92307692308,5824.567319176705,30759.941176470587,4701.437495697624,47285.05172413793,6886.778176513096,15113.25,2958.338712436424,19401.8125,7230.693758947137,34649.83870967742,11114.252079945196,18552.74025974026,3412.0707937213397,24345.2,1869.5807444451282
1811.4173228346456,26176.04761904762,2085.808384483111,18710.315789473683,8020.645971180492,27462.571428571428,3393.2258085419394,45740.59259259259,1515.4422715707942,42426.54838709677,8068.503881936228,55969.744680851065,332.327156680659,57051.36956521739,4328.344936018926,42175.807692307695,6038.109561642813,30135.529411764706,3890.660886210451,49092.30172413793,6894.007394256696,15599.5625,3101.1359404408167,19290.333333333332,7151.465206321164,34600.709677419356,10905.364803451463,19262.090909090908,3477.9514091951523,25251.733333333334,1979.0933097984262
1814.5669291338584,27033.14285714286,2186.7563995608675,18019.473684210527,7938.301229306067,26779.809523809523,3799.434263890294,46303.40740740741,1501.7162837840465,41441.645161290326,7863.246815851117,55633.48936170213,333.5137160942513,56814.239130434784,4387.062740182193,42301.96153846154,6199.298499276841,29780.41176470588,3277.4431939048704,50923.379310344826,6887.678011536719,16143.8125,3247.4448074361094,19037.625,7072.331380177378,34580.48387096774,10748.59843487773,19947.18181818182,3541.8153527416102,26145.4,2090.669551443588
1817.716535433071,27975.095238095237,2287.053061302999,17467.42105263158,7844.823957742955,26207.761904761905,4283.507340227964,46906.40740740741,1520.804009075201,40448.74193548387,7643.8193711366575,55289.36170212766,336.71570340014097,56753.84782608696,4528.7321191783785,42727.153846153844,6283.542966121947,29767.764705882353,2933.0316082894356,52722.370689655174,6871.494182653751,16722.8125,3392.2911914138135,18707.041666666668,7017.298658073292,34658.77419354839,10654.05543173865,20594.285714285714,3620.6228382074223,27049.133333333335,2199.8826898016378
1820.8661417322835,28981.333333333332,2375.375946853232,17155.28947368421,7789.501676203261,25897.666666666668,4796.096958126059,47499.22222222222,1561.630399989972,39469.096774193546,7422.47050583494,55022.85106382979,340.6292037006837,56919.239130434784,4704.515551387987,43496.61538461538,6276.251668465595,30116.647058823528,2857.5423406090945,54419.98275862069,6846.624316711522,17306.0625,3530.068208773557,18375.9375,7003.0187847999105,34880.12903225807,10614.777495250346,21184.753246753247,3727.7381086451473,27977.266666666666,2303.4667631396137
1824.015748031496,30006.761904761905,2449.825706234977,17146.184210526317,7808.238492823034,25952.285714285714,5283.359962163842,48035.11111111111,1619.6173149585616,38516.354838709674,7208.8244290094235,54899.085106382976,344.2065702011941,57321.80434782609,4858.106298707997,44606.07692307692,6175.006632964839,30794.764705882353,2987.028240466193,55941.19827586207,6811.492442695182,17862.9375,3656.3550406919935,18125.125,7034.718395290722,35256.48387096774,10610.165812668552,21700.454545454544,3869.6338279247566,28935.066666666666,2399.6382356976687
1827.1653543307089,30989.0,2514.5632016789905,17460.71052631579,7917.1021044315485,26414.285714285714,5699.152795375292,48485.03703703704,1704.6076442543842,37597.16129032258,7010.738385927755,54952.59574468085,345.8276941259122,57933.47826086957,4948.246016603433,46002.192307692305,5989.715422925628,31730.529411764706,3252.6595835995513,57214.80172413793,6763.055615800511,18367.375,3767.1465971441835,18028.625,7107.194689845987,35766.6129032258,10612.193357179094,22129.636363636364,4046.0638718119108,29918.0,2489.012575299691
1830.3149606299207,31861.95238095238,2576.9255486813568,18080.605263157893,8110.392097535221,27264.095238095237,6014.3708367840345,48845.555555555555,1840.7325098556569,36712.1935483871,6836.494307329738,55183.17021276596,344.7122956500031,58692.739130434784,4960.343739994598,47592.730769230766,5739.398082603412,32830.94117647059,3616.464758501176,58184.59482758621,6699.684525483846,18802.5625,3860.9866447701875,18144.020833333332,7208.228470787119,36362.32258064516,10596.039510840668,22472.0,4250.327837622967,30915.733333333334,2574.6250592184397
1833.464566929134,32569.95238095238,2644.2067399215803,18958.07894736842,8362.711312353626,28430.14285714286,6219.890370230578,49143.11111111111,2054.8909556242083,35859.83870967742,6695.178010097166,55559.063829787236,340.46397655260614,59516.434782608696,4906.013340577114,49263.03846153846,5449.546011301303,34000.58823529412,4062.715580652103,58819.96551724138,6623.32556189192,19162.25,3937.489801574094,18506.020833333332,7321.96185142566,36977.6129032258,10545.765460149334,22741.0,4471.500355425618,31914.333333333332,2661.2386506203375
1836.6141732283463,33079.95238095238,2721.914635591409,20029.315789473683,8634.152383063507,29807.095238095237,6326.736847205426,49429.555555555555,2358.93228096375,35037.6129032258,6594.258923744343,56025.48936170213,333.3846971140177,60315.65217391304,4814.113563342284,50896.846153846156,5146.2562545864175,35161.23529411765,4580.026708494071,59123.01724137931,6540.45178496309,19451.6875,3998.349842728091,19123.354166666668,7431.497444687667,37543.290322580644,10456.286820712367,22964.493506493505,4697.439132740517,32901.6,2754.196695953286
1839.763779527559,33389.90476190476,2810.1162644099145,21227.447368421053,8879.05639455884,31277.04761904762,6361.205250251533,49773.59259259259,2739.6556320397926,34245.51612903226,6536.402176352843,56518.744680851065,324.5895914801314,61013.5,4720.110590773317,52395.96153846154,4852.2916987017525,36262.64705882353,5151.484639701412,59132.03448275862,6461.819409811591,19684.1875,4046.2521581512624,19979.125,7519.723356572035,38000.67741935484,10332.036099455803,23181.64935064935,4915.975523187387,33870.73333333333,2858.4252416710533
1842.913385826772,33531.28571428572,2905.147634030017,22496.026315789473,9054.986801370373,32733.761904761905,6357.782504292049,50244.92592592593,3166.5734831427267,33486.87096774193,6517.136377581479,56979.40425531915,315.37715749758087,61558.80434782609,4654.429291216875,53695.92307692308,4583.051132857949,37289.117647058825,5755.603059141106,58918.06034482759,6399.779409302936,19878.1875,4084.567422303585,21035.458333333332,7571.996483640487,38312.45161290323,10183.717743848183,23437.545454545456,5117.861857083838,34823.13333333333,2976.209644646843
1846.062992125984,33564.95238095238,2999.4378120255496,23795.526315789473,9130.791499492376,34099.666666666664,6351.013899808089,50900.2962962963,3604.27759048128,32768.54838709677,6525.674983447626,57363.95744680851,307.35667529565774,61935.19565217391,4637.600516288218,54774.346153846156,4344.8205853221425,38257.05882352941,6368.836207942438,58575.98275862069,6364.88891739182,20052.75,4116.957045258063,22240.770833333332,7578.605121875396,38471.354838709674,10025.616958083854,23776.974025974025,5297.378153202456,35767.333333333336,3107.355803394405
1849.2125984251968,33571.619047619046,3085.0283548313423,25108.63157894737,9093.767710913635,35337.19047619047,6367.131922310058,51768.7037037037,4022.6957224194166,32100.8064516129,6548.634309333339,57651.85106382979,302.18952618002965,62161.80434782609,4678.559935537417,55650.230769230766,4135.818534068627,39203.23529411765,6969.387343564475,58210.59482758621,6364.287455008082,20224.25,4146.5586710548305,23537.020833333332,7536.4278355464485,38500.67741935484,9874.039508657153,24238.03896103896,5453.838499177015,36719.26666666667,3250.246666878616
1852.362204724409,33637.666666666664,3155.6734747697014,26437.42105263158,8951.157515949892,36450.80952380953,6418.026425764704,52842.59259259259,4402.017797087043,31494.225806451614,6572.830679590023,57845.765957446805,300.94476857842466,62285.891304347824,4775.900366870336,56372.92307692308,3948.132352265552,40171.294117647056,7536.506202281282,57919.129310344826,6399.998956802413,20404.625,4175.866704574632,24868.395833333332,7450.787840724136,38451.354838709674,9743.515281220623,24845.83116883117,5590.951164117604,37696.26666666667,3401.0680962832184
1855.5118110236224,33839.90476190476,3208.8731727116847,27796.815789473683,8728.795961628995,37480.0,6495.770528729041,54073.62962962963,4734.030912197406,30958.09677419355,6587.918484496957,57965.936170212764,303.55562456056384,62369.13043478261,4916.748676534541,57005.57692307692,3772.134502588859,41193.705882352944,8053.621697280459,57773.474137931036,6469.50332856369,20600.875,4205.348214996589,26187.229166666668,7334.939019968014,38392.12903225807,9643.38884598996,25609.87012987013,5715.822305887788,38711.46666666667,3555.5525752765284
1858.6614173228347,34230.95238095238,3246.266785917552,29206.894736842107,8464.290170722106,38484.95238095238,6574.78120205344,55376.333333333336,5020.116731710528,30496.645161290322,6587.35390875963,58040.0,309.03914232563113,62469.54347826087,5076.919023369269,57603.730769230766,3601.0500344471357,42278.117647058825,8507.43441579777,57804.99137931035,6565.693236891301,20816.25,4234.906071862752,27458.041666666668,7205.896034840535,38398.93548387097,9573.953125404916,26522.12987012987,5837.091333008847,39768.066666666666,3709.300643277951
1861.8110236220475,34828.57142857143,3272.2539570124554,30682.657894736843,8199.68123987729,39530.0,6617.420580774441,56637.7037037037,5267.719056703447,30107.41935483871,6568.972997622715,58090.55319148936,315.3997671655961,62623.0,5222.953362426948,58196.307692307695,3434.553389051991,43394.82352941176,8890.381744171249,57995.025862068964,6676.462729388773,21052.0,4263.274299174286,28659.0625,7079.882088843506,38540.77419354839,9523.879375987826,27560.051948051947,5962.160043718366,40853.26666666667,3858.6325983292177
1864.96062992126,35612.23809523809,3293.201032209961,32226.71052631579,7972.190400675717,40664.619047619046,6583.737782461314,57730.40740740741,5485.44576168515,29779.129032258064,6536.703049515423,58125.382978723406,319.12037035279644,62830.282608695656,5320.357803687903,58770.307692307695,3282.6971060304713,44477.0,9202.040227739779,58272.51724137931,6783.179093299226,21309.5625,4288.889686864626,29780.979166666668,6969.105850375115,38868.58064516129,9471.427213957926,28689.506493506495,6096.078489591199,41934.666666666664,3999.8234572151914
1868.1102362204724,36523.57142857143,3315.71224225948,33823.94736842105,7807.331439599336,41911.09523809524,6443.7919988360145,58528.666666666664,5677.542902295623,29490.516129032258,6499.4950814856375,58130.70212765958,316.5602302203724,63048.95652173913,5341.680593532998,59267.07692307692,3165.636124226206,45422.35294117647,9450.197700647055,58520.706896551725,6861.304329626077,21592.5625,4310.402648952155,30824.0,6878.959293260379,39407.06451612903,9390.391787956536,29870.909090909092,6239.668310743701,42960.333333333336,4131.314926536372
1871.259842519685,37475.23809523809,3345.3895054702757,35440.86842105263,7715.5154146865625,43256.04761904762,6183.994975327461,58923.37037037037,5841.884140178598,29211.451612903227,6469.889677668939,58070.89361702128,303.6902280945316,63196.717391304344,5276.165000811147,59586.230769230766,3112.4260918959653,46107.82352941176,9649.832398637776,58591.65517241379,6884.109850432229,21906.3125,4326.986042829783,31794.229166666668,6809.234077215732,40150.93548387097,9258.086505200366,31064.81818181818,6390.120236917832,43861.2,4252.604287570931
1874.409448818897,38365.52380952381,3386.1139915423437,37028.89473684211,7691.159158374372,44652.28571428572,5813.315004963931,58833.7037037037,5968.52141138276,28904.74193548387,6457.207735535098,57896.04255319149,279.2717701334691,63162.04347826087,5132.542525953227,59603.307692307695,3157.997561372259,46405.82352941176,9821.220010684512,58327.76724137931,6830.662969991751,22257.3125,4338.932050613808,32700.3125,6756.574607238278,41066.709677419356,9060.829838779984,32237.25974025974,6541.28743911368,44558.666666666664,4363.708646960238
1877.5590551181103,39093.666666666664,3441.4580704686273,38531.31578947369,7715.849576666896,46025.90476190476,5361.276446312654,58213.851851851854,6041.8011706327725,28529.290322580644,6462.778999748001,57554.48936170213,247.00735386937373,62825.47826086957,4940.938432864095,59192.53846153846,3337.78036829601,46205.23529411765,9989.81278473468,57585.870689655174,6696.6842908934805,22649.4375,4346.822646611402,33550.333333333336,6716.947525145299,42098.87096774193,8796.451042954346,33363.36363636364,6684.818906733415,44973.73333333333,4466.101528427475
1880.708661417323,39576.142857142855,3516.4406555995997,39891.02631578947,7762.6364332000185,47290.666666666664,4872.696333197417,57055.333333333336,6044.272581298517,28044.225806451614,6475.143045921108,57008.02127659575,220.68842861833485,62082.65217391304,4749.0217080325965,58255.46153846154,3680.7482645492414,45431.17647058824,10182.430908390797,56262.31896551724,6506.54563470793,23082.125,4351.930877136608,34350.791666666664,6687.340225375898,43179.6129032258,8473.214687500764,34429.98701298701,6812.723121080635,45037.86666666667,4561.180941622709
1883.858267716536,39761.857142857145,3618.624696466539,41061.34210526316,7803.16339116898,48365.47619047619,4399.3256476640845,55382.77777777778,5959.531676438101,27413.064516129034,6472.717402797904,56247.89361702128,226.07786589717105,60867.282608695656,4616.370015042609,56744.88461538462,4203.043405831277,44061.17647058824,10425.710630231817,54312.9224137931,6319.988086728817,23548.4375,4356.678766112295,35107.020833333336,6665.498891960949,44240.51612903226,8105.212432275942,35434.92207792208,6919.012118447751,44704.0,4649.83900796576
1887.007874015748,39640.47619047619,3760.3464077895756,42012.78947368421,7813.746163881536,49189.28571428572,3988.374213980967,53247.51851851852,5778.194946715596,26608.8064516129,6430.470711809693,55304.95744680851,277.45890686322645,59171.13043478261,4607.005292551276,54685.53846153846,4901.07479759263,42133.529411764706,10740.988267148292,51766.379310344826,6226.25310148165,24032.625,4363.153287402931,35824.583333333336,6649.951333886253,45223.41935483871,7708.255615286322,36386.181818181816,7002.435319836993,43954.73333333333,4732.523913891567
1890.1574803149608,39246.04761904762,3954.5955482341533,42738.31578947369,7780.981260352785,49734.142857142855,3676.270098446888,50718.7037037037,5499.005013130169,25617.322580645163,6327.741167512977,54254.255319148935,359.8365744946545,57053.391304347824,4774.625327792114,52180.11538461538,5748.100384052799,39750.294117647056,11139.47238567168,48727.28448275862,6313.825707573918,24513.1875,4373.703382414467,36511.229166666664,6640.863658815972,46089.41935483871,7296.444745279423,37299.168831168834,7067.0997861272945,42809.53333333333,4808.720229841708
1893.3070866141727,38653.333333333336,4210.697265337115,43256.15789473684,7704.8317565098,50011.0,3483.806060426824,47873.37037037037,5131.7841107281665,24440.935483870966,6153.760517924524,53209.14893617021,450.1171468663725,54639.891304347824,5144.4811426727665,49404.5,6696.047319989492,37069.35294117647,11615.087556030565,45370.01724137931,6624.345453654866,24967.0625,4391.092225585082,37178.625,6638.869154535407,46824.16129032258,6881.579104681238,38193.31168831169,7123.100791780457,41323.53333333333,4876.641109980881
1896.4566929133853,37968.80952380953,4527.910414929119,43605.92105263158,7597.347339633122,50067.47619047619,3417.8502519377885,44790.07407407407,4696.375568030576,23099.612903225807,5907.762409649339,52307.89361702128,530.143787562556,52110.413043478264,5702.191270548264,46588.5,7679.839983559353,34292.23529411765,12142.53082704809,41921.33620689655,7125.782404644717,25374.625,4416.305113935743,37844.270833333336,6646.694983033495,47439.1935483871,6473.692332367358,39090.03896103896,7185.037690149692,39585.86666666667,4934.609256623625
1899.6062992125983,37316.42857142857,4892.034687914131,43844.23684210526,7479.51413928039,49980.09523809524,3469.253685418068,41543.77777777778,4219.874592952605,21630.451612903227,5597.982706001417,51691.68085106383,586.7405133948483,49675.82608695652,6395.853307805897,43986.42307692308,8624.934399630469,31643.176470588234,12678.958944252268,38636.69827586207,7732.026663907486,25727.8125,4449.85868060366,38530.125,6668.423256990741,47968.48387096774,6081.424179926234,40009.76623376623,7269.5459957492785,37710.73333333333,4980.428354625288
1902.755905511811,36821.76190476191,5277.068214767614,44036.05263157895,7373.926808436418,49840.42857142857,3612.197267874613,38203.444444444445,3734.100400694809,20086.16129032258,5237.527600030592,51482.44680851064,611.1465265858095,47550.19565217391,7148.543267899033,41843.653846153844,9455.920522013657,29347.529411764706,13170.986796376019,35771.93103448276,8344.486644324665,26036.3125,4489.506803630411,39261.645833333336,6708.146749443245,48461.903225806454,5711.072078074076,40970.805194805194,7392.035970774206,35826.666666666664,5012.800064723197
1905.905511811024,36596.80952380953,5649.071222599741,44246.07894736842,7300.554461212911,49737.90476190476,3805.8208038384705,34832.7037037037,3270.665781297326,18530.225806451614,4842.66468042915,51758.31914893617,599.1114380190327,45920.586956521736,7871.714816701761,40360.807692307695,10105.762221544815,27609.58823529412,13563.442678797963,33554.870689655174,8883.332216446799,26331.5625,4533.275140127031,40065.208333333336,6768.783525488946,48976.54838709677,5363.0523316647605,41988.818181818184,7563.013123048887,34062.4,5030.881815348082
1909.055118110236,36726.23809523809,5972.741078510745,44529.78947368421,7271.731952379545,49745.28571428572,4002.5897942737633,31491.296296296296,2856.98199756854,17031.387096774193,4432.716116867482,52538.36170212766,551.59376146056,44921.434782608696,8476.34112680233,39666.53846153846,10523.2641588156,26592.764705882353,13808.182529506412,32160.80172413793,9299.125993617326,26668.875,4577.662283783613,40963.291666666664,6849.026895474318,49567.12903225807,5030.384265075424,43075.792207792205,7785.907538019486,32534.666666666668,5036.403646342189
1912.2047244094488,37257.95238095238,6217.139040979805,44926.57894736842,7289.3432150589,49907.142857142855,4157.914143799855,28236.777777777777,2512.6389599800996,15658.032258064517,4030.958818812147,53775.17021276596,474.66285097050104,44616.434782608696,8882.851389670104,39800.346153846156,10679.242284206914,26404.352941176472,13872.103343384888,31694.543103448275,9571.19659347256,27121.0,4619.489609253386,41972.0,6943.132146229106,50277.54838709677,4699.82869172161,44239.97402597403,8055.6460751225295,31336.6,5031.98342339612
1915.3543307086616,38199.52380952381,6359.326002165171,45455.81578947369,7345.637763344787,50233.09523809524,4240.042653702368,25124.555555555555,2246.2831577277516,14469.451612903225,3664.2114131033372,55358.97872340425,378.9116266676204,44992.217391304344,9030.141408958361,40709.53846153846,10569.381752644575,27086.176470588234,13739.910399721954,32181.525862068964,9699.379785949708,27771.25,4655.905960444218,43096.354166666664,7039.946867370471,51133.32258064516,4357.341771687937,45484.98701298701,8359.126892351185,30529.4,5022.993049301715
1918.503937007874,39519.333333333336,6387.270878070012,46115.36842105263,7423.61666866045,50699.0,4235.057136849626,22207.40740740741,2054.7296165145835,13509.451612903225,3358.6669383101084,57133.44680851064,280.81074178631474,45963.84782608696,8882.381412875695,42260.192307692305,10213.585462582632,28612.764705882353,13416.070457957201,33568.66379310345,9693.536785550827,28699.625,4684.082512549816,44329.1875,7125.047074862763,52139.51612903226,3996.8606541196223,46808.896103896106,8677.409269221387,30137.933333333334,5013.815931559072
1921.6535433070867,41151.80952380953,6301.634410963009,46883.60526315789,7500.919328004766,51255.28571428572,4149.060744460666,19531.777777777777,1925.6978212495937,12801.0,3133.2225500891404,58919.55319148936,204.60473658861184,47390.282608695656,8434.321512525716,44260.53846153846,9653.252187060187,30894.58823529412,12924.06013903946,35733.69827586207,9565.969910645565,29968.5625,4701.576689908796,45649.854166666664,7184.107303594928,53278.74193548387,3629.884073219916,48202.155844155845,8988.793598994414,30151.0,5009.600529649711
1924.8031496063,43006.95238095238,6114.455817986862,47723.10526315789,7555.773072675077,51836.80952380953,4006.2496964599554,17133.51851851852,1845.0781649681537,12342.064516129032,2994.4133674548857,60544.36170212766,179.37781659520905,49098.260869565216,7715.0009677217195,46491.42307692308,8945.371261904875,33787.05882352941,12303.22824432002,38501.28448275862,9329.388985431111,31608.25,4706.712314609848,47025.291666666664,7206.170686057695,54514.51612903226,3293.3519631168574,49646.66233766234,9272.2585931612,30524.266666666666,5013.8645835545085
1927.952755905512,44980.95238095238,5849.7291062732165,48586.63157894737,7572.525426695518,52377.71428571428,3843.5172897311886,15033.814814814816,1802.139942710847,12104.064516129032,2937.7596679792255,61868.72340425532,202.31150429817328,50907.95652173913,6787.712395448634,48739.53846153846,8155.526192667763,37103.41176470588,11605.116559512084,41663.120689655174,9000.19215326978,33605.75,4698.5379574395265,48412.354166666664,7187.773584618025,55795.354838709674,3046.6448870253776,51113.96103896104,9510.552271291903,31188.333333333332,5027.5213066568795
1931.1023622047244,46966.47619047619,5539.958918698015,49422.44736842105,7547.06964986156,52823.76190476191,3703.0959107567064,13235.407407407407,1795.6102080363628,12033.193548387097,2953.7654636331445,62808.85106382979,236.88420537086765,52657.260869565216,5749.524613372236,50825.07692307692,7351.354647133343,40630.17647058824,10889.64559589302,44998.75,8604.48183023303,35898.6875,4678.031513344448,49761.104166666664,7134.4929837363115,57060.83870967742,2949.571615662335,52565.35064935065,9693.227426506619,32056.133333333335,5050.07484917028
1934.251968503937,48862.57142857143,5223.280392092863,50180.47368421053,7487.811779773012,53141.52380952381,3618.9017884152386,11721.481481481482,1828.6527194017958,12054.451612903225,3029.184153325028,63347.765957446805,261.4804994776131,54220.02173913043,4725.781989530504,52622.57692307692,6596.08084788044,44141.82352941176,10220.865401574049,48294.00862068965,8181.264383033841,38376.9375,4647.608598364728,51018.770833333336,7060.202638851757,58247.032258064515,3015.4693368595317,53952.66233766234,9816.736926595526,33032.6,5078.020779792064
1937.4015748031493,50580.47619047619,4938.458084203318,50815.63157894737,7412.947302279383,53321.90476190476,3607.4635318720616,10456.777777777777,1901.7915789792905,12078.709677419354,3140.972657998386,63534.82978723404,270.90182874031757,55514.760869565216,3857.1532878918483,54068.307692307695,5944.50608525495,47416.64705882353,9662.34444173497,51355.71551724138,7779.453805627819,40890.8125,4610.642244020213,52133.0625,6984.528627038985,59292.67741935484,3187.181385843032,55220.92207792208,9884.706840296452,34022.2,5106.625711759184
1940.5511811023623,52047.71428571428,4719.577999121946,51291.23684210526,7344.06704129692,53379.28571428572,3663.9450263974463,9393.37037037037,2005.0979499145958,12010.774193548386,3248.3261665810774,63472.44680851064,268.0063359453199,56505.0,3259.189323049255,55155.0,5439.31158681515,50250.294117647056,9272.52706696575,54021.3275862069,7447.454941091208,43266.5625,4571.38909371033,53056.479166666664,6928.669608318226,60143.290322580644,3364.7747774270974,56312.168831168834,9905.737309600974,34938.2,5128.992392273554
1943.7007874015749,53209.47619047619,4591.897933358873,51578.86842105263,7299.958756808702,53343.76190476191,3771.8161964100445,8477.222222222223,2117.8548604369807,11758.741935483871,3297.389583054293,63293.0,259.04119445665765,57189.17391304348,2955.113852764007,55917.846153846156,5111.317131863881,52466.58823529412,9099.894214374295,56163.23275862069,7221.344849624808,45327.75,4534.494714132987,53748.041666666664,6912.0394993034115,60753.1935483871,3449.8828817835097,57170.67532467532,9891.300968155698,35705.4,5138.009975337403
1946.850393700788,54027.71428571428,4571.422787198721,51659.36842105263,7294.162029073058,53252.09523809524,3920.463941262467,7657.111111111111,2214.4507777129706,11243.935483870968,3232.103568840058,63131.234042553195,249.85325163331953,57587.32608695652,2876.076335794909,56412.53846153846,4979.749215424479,53926.17647058824,9179.740341293103,57688.870689655174,7120.6176995352025,46915.625,4503.3423819841855,54175.979166666664,6952.033430016427,61087.6129032258,3373.608584648515,57748.05194805195,9853.861993102988,36265.666666666664,5127.005034347268
1950.0,54478.333333333336,4667.991067169538,51520.44736842105,7340.071692957517,53136.04761904762,4121.3260634827175,6892.962962962963,2273.474131864686,10408.806451612903,3014.2895318621704,63095.936170212764,245.09940703725417,57724.30434782609,3004.34885421237,56692.46153846154,5055.358339507537,54532.470588235294,9533.805043217326,58538.887931034486,7157.589126200909,47911.25,4480.82504261213,54318.333333333336,7066.3570480520975,61123.903225806454,3118.849408964153,58009.493506493505,9805.468154579738,36579.13333333333,5092.21460488678
